Data from LSP52_S2_Subt2_15-18-30-802.txt Node
Date: Wed Aug 09 15:18:30 EDT 2023
User: Emmanuel
Spectrometer: USB4A00615
Scans to average: 1
Trigger mode: 1
Integration Time (sec): 4.000000E-3
Electric dark correction enabled: true
Boxcar width: 0
XAxis mode: Wavelengths
Number of Pixels in Spectrum: 3648
>>>>>Begin Spectral Data<<<<<
346.606	-51.2
346.818	-51.2
347.029	-51.2
347.241	133.12
347.452	172.03
347.664	40.96
347.876	-36.86
348.087	-36.86
348.299	-45.06
348.51	24.58
348.722	34.82
348.933	-12.29
349.145	-0
349.356	-10.24
349.568	67.58
349.779	43.01
349.991	-69.63
350.202	-57.34
350.414	67.58
350.625	-69.63
350.836	14.34
351.048	20.48
351.259	-77.82
351.471	34.82
351.682	94.21
351.893	-28.67
352.105	38.91
352.316	22.53
352.527	-47.1
352.739	-94.21
352.95	10.24
353.161	6.14
353.372	8.19
353.584	26.62
353.795	30.72
354.006	45.06
354.217	-8.19
354.429	-16.38
354.64	-59.39
354.851	8.19
355.062	-38.91
355.274	-12.29
355.485	-8.19
355.696	26.62
355.907	-59.39
356.118	-47.1
356.329	24.58
356.54	51.2
356.752	-2.05
356.963	131.07
357.174	16.38
357.385	55.3
357.596	10.24
357.807	-43.01
358.018	36.86
358.229	47.1
358.44	-40.96
358.651	45.06
358.862	45.06
359.073	-28.67
359.284	-77.82
359.495	-36.86
359.706	-10.24
359.917	53.25
360.128	124.93
360.339	-16.38
360.55	8.19
360.761	-16.38
360.972	22.53
361.182	-26.62
361.393	43.01
361.604	-14.34
361.815	2.05
362.026	61.44
362.237	43.01
362.447	6.14
362.658	26.62
362.869	47.1
363.08	-24.58
363.291	-57.34
363.501	143.36
363.712	71.68
363.923	32.77
364.134	-8.19
364.344	-28.67
364.555	94.21
364.766	61.44
364.976	-24.58
365.187	-55.3
365.398	4.1
365.608	-49.15
365.819	-55.3
366.03	32.77
366.24	36.86
366.451	-245.76
366.662	120.83
366.872	34.82
367.083	149.5
367.293	20.48
367.504	102.4
367.714	-0
367.925	12.29
368.135	2.05
368.346	-34.82
368.557	-6.14
368.767	86.01
368.977	-8.19
369.188	67.58
369.398	53.25
369.609	81.92
369.819	-4.1
370.03	49.15
370.24	100.35
370.451	59.39
370.661	59.39
370.871	137.21
371.082	-28.67
371.292	79.87
371.502	43.01
371.713	45.06
371.923	-28.67
372.133	-8.19
372.344	-0
372.554	65.53
372.764	88.06
372.975	45.06
373.185	40.96
373.395	12.29
373.605	83.97
373.816	-59.39
374.026	81.92
374.236	30.72
374.446	22.53
374.656	-49.15
374.867	-8.19
375.077	96.25
375.287	18.43
375.497	-20.48
375.707	16.38
375.917	-55.3
376.127	28.67
376.338	63.49
376.548	-38.91
376.758	8.19
376.968	53.25
377.178	26.62
377.388	-24.58
377.598	49.15
377.808	38.91
378.018	69.63
378.228	2.05
378.438	45.06
378.648	-38.91
378.858	116.73
379.068	-63.49
379.278	94.21
379.488	-34.82
379.698	-28.67
379.908	-18.43
380.118	81.92
380.327	40.96
380.537	-106.49
380.747	-118.78
380.957	75.77
381.167	34.82
381.377	61.44
381.587	90.11
381.796	131.07
382.006	-22.53
382.216	120.83
382.426	26.62
382.636	-20.48
382.845	8.19
383.055	43.01
383.265	61.44
383.475	10.24
383.684	-30.72
383.894	-10.24
384.104	-108.54
384.313	86.01
384.523	51.2
384.733	73.73
384.942	-18.43
385.152	22.53
385.362	43.01
385.571	26.62
385.781	-4.1
385.991	12.29
386.2	14.34
386.41	-94.21
386.619	-26.62
386.829	112.64
387.038	-98.3
387.248	118.78
387.457	133.12
387.667	40.96
387.876	-2.05
388.086	-24.58
388.295	34.82
388.505	149.5
388.714	30.72
388.924	-75.77
389.133	14.34
389.343	-34.82
389.552	-36.86
389.762	81.92
389.971	14.34
390.18	45.06
390.39	20.48
390.599	143.36
390.808	-0
391.018	30.72
391.227	16.38
391.436	-22.53
391.646	83.97
391.855	77.82
392.064	-18.43
392.274	83.97
392.483	69.63
392.692	-10.24
392.901	-47.1
393.111	-2.05
393.32	30.72
393.529	112.64
393.738	24.58
393.947	-47.1
394.157	47.1
394.366	92.16
394.575	61.44
394.784	32.77
394.993	-26.62
395.202	38.91
395.411	20.48
395.62	43.01
395.83	98.3
396.039	-79.87
396.248	4.1
396.457	14.34
396.666	-16.38
396.875	-59.39
397.084	53.25
397.293	24.58
397.502	-22.53
397.711	-63.49
397.92	55.3
398.129	-16.38
398.338	49.15
398.547	-32.77
398.756	-45.06
398.965	94.21
399.174	79.87
399.382	116.73
399.591	-26.62
399.8	116.73
400.009	18.43
400.218	22.53
400.427	-4.1
400.636	47.1
400.844	92.16
401.053	77.82
401.262	-14.34
401.471	67.58
401.68	-43.01
401.888	49.15
402.097	65.53
402.306	22.53
402.515	24.58
402.723	-34.82
402.932	-4.1
403.141	-12.29
403.35	30.72
403.558	20.48
403.767	94.21
403.976	53.25
404.184	28.67
404.393	43.01
404.602	6.14
404.81	-24.58
405.019	-108.54
405.227	61.44
405.436	53.25
405.645	59.39
405.853	-32.77
406.062	-8.19
406.27	102.4
406.479	40.96
406.687	-67.58
406.896	-90.11
407.104	65.53
407.313	71.68
407.521	165.89
407.73	73.73
407.938	81.92
408.147	-20.48
408.355	47.1
408.563	69.63
408.772	-45.06
408.98	118.78
409.189	51.2
409.397	36.86
409.605	-49.15
409.814	135.17
410.022	43.01
410.23	75.77
410.439	43.01
410.647	55.3
410.855	4.1
411.064	73.73
411.272	28.67
411.48	106.49
411.688	20.48
411.897	81.92
412.105	-4.1
412.313	47.1
412.521	-65.54
412.73	116.73
412.938	24.58
413.146	-157.69
413.354	59.39
413.562	-45.06
413.77	22.53
413.979	43.01
414.187	104.45
414.395	-36.86
414.603	-77.82
414.811	30.72
415.019	79.87
415.227	-14.34
415.435	88.06
415.643	100.35
415.851	116.73
416.059	67.58
416.267	155.65
416.475	219.13
416.683	188.41
416.891	180.22
417.099	129.02
417.307	210.94
417.515	104.45
417.723	86.01
417.931	233.47
418.139	157.69
418.347	104.45
418.555	51.2
418.763	196.6
418.971	120.83
419.179	4.1
419.386	49.15
419.594	-4.1
419.802	18.43
420.01	47.1
420.218	395.26
420.426	655.35
420.633	272.38
420.841	458.74
421.049	137.21
421.257	241.66
421.464	110.59
421.672	239.61
421.88	104.45
422.088	34.82
422.295	92.16
422.503	202.75
422.711	120.83
422.918	69.63
423.126	-34.82
423.334	-2.05
423.541	6.14
423.749	-79.87
423.956	32.77
424.164	34.82
424.372	106.49
424.579	4.1
424.787	36.86
424.994	124.93
425.202	-26.62
425.409	-10.24
425.617	73.73
425.824	34.82
426.032	106.49
426.239	24.58
426.447	184.32
426.654	83.97
426.862	79.87
427.069	204.8
427.277	239.61
427.484	155.65
427.692	118.78
427.899	186.37
428.106	217.08
428.314	133.12
428.521	118.78
428.728	88.06
428.936	114.69
429.143	63.49
429.351	65.53
429.558	124.93
429.765	133.12
429.972	40.96
430.18	-6.14
430.387	198.65
430.594	-28.67
430.801	-10.24
431.009	8.19
431.216	69.63
431.423	126.97
431.63	-34.82
431.838	69.63
432.045	79.87
432.252	102.4
432.459	122.88
432.666	71.68
432.873	212.99
433.081	10.24
433.288	38.91
433.495	6.14
433.702	401.4
433.909	147.45
434.116	122.88
434.323	215.04
434.53	253.95
434.737	290.81
434.944	182.27
435.151	210.94
435.358	116.73
435.565	18.43
435.772	-8.19
435.979	149.5
436.186	288.76
436.393	102.4
436.6	73.73
436.807	120.83
437.014	135.17
437.221	38.91
437.428	65.53
437.635	86.01
437.841	198.65
438.048	51.2
438.255	106.49
438.462	65.53
438.669	202.75
438.876	-12.29
439.082	38.91
439.289	51.2
439.496	69.63
439.703	14.34
439.91	-26.62
440.116	319.48
440.323	231.42
440.53	24.58
440.737	49.15
440.943	301.05
441.15	274.43
441.357	38.91
441.563	75.77
441.77	120.83
441.977	413.69
442.183	65.53
442.39	114.69
442.597	190.46
442.803	272.38
443.01	182.27
443.216	12.29
443.423	225.28
443.63	249.85
443.836	262.14
444.043	135.17
444.249	169.98
444.456	419.83
444.662	247.8
444.869	133.12
445.075	180.22
445.282	344.06
445.488	235.52
445.695	96.25
445.901	59.39
446.107	366.59
446.314	233.47
446.52	309.24
446.727	126.97
446.933	253.95
447.139	196.6
447.346	196.6
447.552	94.21
447.759	219.13
447.965	290.81
448.171	182.27
448.378	206.84
448.584	323.58
448.79	464.89
448.996	163.84
449.203	208.89
449.409	143.36
449.615	260.09
449.821	272.38
450.028	159.74
450.234	184.32
450.44	235.52
450.646	360.44
450.852	227.32
451.059	100.35
451.265	276.48
451.471	280.57
451.677	305.15
451.883	210.94
452.089	223.23
452.295	296.96
452.502	94.21
452.708	280.57
452.914	192.51
453.12	520.18
453.326	223.23
453.532	301.05
453.738	139.26
453.944	204.8
454.15	186.37
454.356	296.96
454.562	112.64
454.768	124.93
454.974	145.41
455.18	270.33
455.386	202.75
455.592	190.46
455.798	133.12
456.003	141.31
456.209	215.04
456.415	22.53
456.621	126.97
456.827	194.56
457.033	118.78
457.239	28.67
457.444	49.15
457.65	145.41
457.856	-18.43
458.062	88.06
458.268	-40.96
458.473	172.03
458.679	112.64
458.885	223.23
459.091	88.06
459.296	120.83
459.502	-2.05
459.708	176.13
459.914	-8.19
460.119	90.11
460.325	-10.24
460.531	135.17
460.736	153.6
460.942	83.97
461.147	57.34
461.353	100.35
461.559	63.49
461.764	38.91
461.97	-6.14
462.175	38.91
462.381	92.16
462.587	141.31
462.792	-98.3
462.998	114.69
463.203	116.73
463.409	81.92
463.614	163.84
463.82	40.96
464.025	110.59
464.231	18.43
464.436	114.69
464.641	49.15
464.847	116.73
465.052	49.15
465.258	40.96
465.463	184.32
465.669	133.12
465.874	131.07
466.079	49.15
466.285	253.95
466.49	112.64
466.695	83.97
466.901	75.77
467.106	55.3
467.311	26.62
467.516	20.48
467.722	40.96
467.927	190.46
468.132	55.3
468.338	43.01
468.543	98.3
468.748	10.24
468.953	6.14
469.158	157.69
469.364	28.67
469.569	120.83
469.774	26.62
469.979	71.68
470.184	96.25
470.389	147.45
470.594	38.91
470.8	227.32
471.005	114.69
471.21	346.11
471.415	-4.1
471.62	77.82
471.825	139.26
472.03	157.69
472.235	147.45
472.44	202.75
472.645	153.6
472.85	239.61
473.055	104.45
473.26	280.57
473.465	-20.48
473.67	206.84
473.875	167.93
474.08	237.56
474.285	167.93
474.49	284.67
474.695	98.3
474.899	176.13
475.104	182.27
475.309	370.68
475.514	116.73
475.719	151.55
475.924	118.78
476.128	96.25
476.333	120.83
476.538	270.33
476.743	151.55
476.948	200.7
477.152	219.13
477.357	350.2
477.562	256
477.767	210.94
477.971	178.17
478.176	260.09
478.381	114.69
478.585	393.21
478.79	98.3
478.995	212.99
479.199	204.8
479.404	335.87
479.609	176.13
479.813	378.87
480.018	169.98
480.223	442.36
480.427	522.23
480.632	370.68
480.836	114.69
481.041	524.28
481.245	272.38
481.45	272.38
481.654	344.06
481.859	307.2
482.063	223.23
482.268	376.83
482.472	329.72
482.677	473.08
482.881	505.85
483.086	278.52
483.29	182.27
483.495	419.83
483.699	587.77
483.903	567.29
484.108	587.77
484.312	524.28
484.517	411.64
484.721	446.46
484.925	428.03
485.13	430.07
485.334	161.79
485.538	305.15
485.743	376.83
485.947	530.42
486.151	509.94
486.355	325.63
486.56	180.22
486.764	475.13
486.968	548.86
487.172	423.93
487.377	722.93
487.581	421.88
487.785	280.57
487.989	673.78
488.193	665.59
488.397	860.15
488.602	466.94
488.806	452.6
489.01	434.17
489.214	561.14
489.418	600.05
489.622	503.8
489.826	397.31
490.03	544.76
490.234	372.73
490.438	577.53
490.642	614.39
490.846	329.72
491.05	227.32
491.254	303.1
491.458	307.2
491.662	827.38
491.866	757.75
492.07	301.05
492.274	276.48
492.478	585.72
492.682	430.07
492.886	690.17
493.09	544.76
493.294	413.69
493.498	292.86
493.701	536.57
493.905	446.46
494.109	712.69
494.313	495.61
494.517	464.89
494.721	430.07
494.924	464.89
495.128	380.92
495.332	690.17
495.536	501.75
495.739	417.79
495.943	405.5
496.147	370.68
496.351	366.59
496.554	759.8
496.758	342.01
496.962	333.82
497.165	272.38
497.369	450.55
497.573	366.59
497.776	804.85
497.98	428.03
498.184	307.2
498.387	348.15
498.591	350.2
498.794	493.56
498.998	600.05
499.202	337.91
499.405	309.24
499.609	376.83
499.812	225.28
500.016	385.02
500.219	731.12
500.423	366.59
500.626	319.48
500.83	331.77
501.033	524.28
501.237	208.89
501.44	612.34
501.643	202.75
501.847	430.07
502.05	378.87
502.254	235.52
502.457	397.31
502.66	645.11
502.864	294.91
503.067	253.95
503.271	264.19
503.474	126.97
503.677	415.74
503.88	446.46
504.084	266.24
504.287	202.75
504.49	419.83
504.694	374.78
504.897	329.72
505.1	487.42
505.303	315.39
505.507	653.3
505.71	231.42
505.913	413.69
506.116	294.91
506.319	450.55
506.522	610.29
506.726	477.18
506.929	204.8
507.132	434.17
507.335	161.79
507.538	159.74
507.741	303.1
507.944	133.12
508.147	196.6
508.35	481.27
508.553	200.7
508.756	194.56
508.959	286.72
509.163	290.81
509.366	223.23
509.569	497.66
509.771	161.79
509.974	415.74
510.177	253.95
510.38	305.15
510.583	376.83
510.786	356.35
510.989	362.49
511.192	430.07
511.395	206.84
511.598	364.54
511.801	270.33
512.004	331.77
512.206	157.69
512.409	466.94
512.612	325.63
512.815	319.48
513.018	202.75
513.22	468.98
513.423	321.53
513.626	251.9
513.829	196.6
514.032	516.09
514.234	303.1
514.437	442.36
514.64	327.67
514.842	360.44
515.045	325.63
515.248	454.65
515.45	337.91
515.653	389.11
515.856	458.74
516.058	204.8
516.261	532.47
516.464	163.84
516.666	262.14
516.869	628.73
517.071	317.44
517.274	518.14
517.477	210.94
517.679	477.18
517.882	413.69
518.084	585.72
518.287	315.39
518.489	811
518.692	460.79
518.894	499.7
519.097	524.28
519.299	376.83
519.501	495.61
519.704	581.62
519.906	499.7
520.109	731.12
520.311	163.84
520.514	608.25
520.716	372.73
520.918	311.29
521.121	450.55
521.323	628.73
521.525	419.83
521.728	702.45
521.93	268.28
522.132	536.57
522.335	509.94
522.537	604.15
522.739	335.87
522.941	598.01
523.144	395.26
523.346	432.12
523.548	325.63
523.75	526.33
523.952	413.69
524.155	356.35
524.357	342.01
524.559	585.72
524.761	282.62
524.963	581.62
525.165	423.93
525.368	366.59
525.57	491.51
525.772	520.18
525.974	442.36
526.176	499.7
526.378	262.14
526.58	630.77
526.782	358.39
526.984	526.33
527.186	360.44
527.388	313.34
527.59	288.76
527.792	511.99
527.994	176.13
528.196	573.43
528.398	282.62
528.6	395.26
528.802	172.03
529.004	299
529.206	223.23
529.408	655.35
529.609	288.76
529.811	669.69
530.013	245.76
530.215	446.46
530.417	272.38
530.619	231.42
530.821	409.59
531.022	329.72
531.224	137.21
531.426	550.9
531.628	241.66
531.829	391.16
532.031	440.31
532.233	88.06
532.435	274.43
532.636	149.5
532.838	397.31
533.04	256
533.241	188.41
533.443	528.38
533.645	280.57
533.846	155.65
534.048	235.52
534.25	403.45
534.451	227.32
534.653	124.93
534.855	184.32
535.056	321.53
535.258	200.7
535.459	458.74
535.661	73.73
535.862	249.85
536.064	155.65
536.265	223.23
536.467	151.55
536.668	143.36
536.87	106.49
537.071	237.56
537.273	249.85
537.474	237.56
537.676	266.24
537.877	290.81
538.078	102.4
538.28	124.93
538.481	57.34
538.683	282.62
538.884	55.3
539.085	368.63
539.287	135.17
539.488	307.2
539.689	106.49
539.891	323.58
540.092	131.07
540.293	133.12
540.495	167.93
540.696	221.18
540.897	90.11
541.098	217.08
541.3	212.99
541.501	145.41
541.702	235.52
541.903	198.65
542.104	208.89
542.306	96.25
542.507	182.27
542.708	366.59
542.909	120.83
543.11	266.24
543.311	10.24
543.512	122.88
543.713	161.79
543.915	182.27
544.116	167.93
544.317	319.48
544.518	268.28
544.719	231.42
544.92	65.53
545.121	102.4
545.322	141.31
545.523	92.16
545.724	176.13
545.925	215.04
546.126	79.87
546.327	380.92
546.528	133.12
546.729	327.67
546.929	161.79
547.13	284.67
547.331	124.93
547.532	169.98
547.733	280.57
547.934	227.32
548.135	200.7
548.336	440.31
548.536	114.69
548.737	368.63
548.938	256
549.139	239.61
549.34	167.93
549.54	317.44
549.741	167.93
549.942	233.47
550.143	-131.07
550.343	321.53
550.544	143.36
550.745	456.7
550.945	174.08
551.146	198.65
551.347	139.26
551.547	266.24
551.748	139.26
551.949	284.67
552.149	344.06
552.35	167.93
552.551	368.63
552.751	360.44
552.952	114.69
553.152	305.15
553.353	86.01
553.553	329.72
553.754	219.13
553.954	251.9
554.155	239.61
554.356	407.55
554.556	270.33
554.756	278.52
554.957	419.83
555.157	405.5
555.358	407.55
555.558	514.04
555.759	225.28
555.959	270.33
556.159	262.14
556.36	399.35
556.56	317.44
556.761	507.9
556.961	391.16
557.161	372.73
557.362	471.03
557.562	602.1
557.762	239.61
557.963	808.95
558.163	364.54
558.363	321.53
558.563	600.05
558.764	350.2
558.964	430.07
559.164	368.63
559.364	542.71
559.565	292.86
559.765	626.68
559.965	237.56
560.165	389.11
560.365	731.12
560.565	210.94
560.766	630.77
560.966	417.79
561.166	133.12
561.366	499.7
561.566	526.33
561.766	190.46
561.966	618.49
562.166	460.79
562.366	550.9
562.566	458.74
562.766	473.08
562.966	186.37
563.166	692.21
563.366	299
563.566	438.27
563.766	548.86
563.966	440.31
564.166	430.07
564.366	473.08
564.566	350.2
564.766	653.3
564.966	245.76
565.166	643.06
565.366	430.07
565.565	376.83
565.765	184.32
565.965	382.97
566.165	233.47
566.365	706.55
566.565	514.04
566.764	307.2
566.964	458.74
567.164	413.69
567.364	315.39
567.564	536.57
567.763	305.15
567.963	96.25
568.163	507.9
568.362	489.46
568.562	352.25
568.762	491.51
568.961	206.84
569.161	380.92
569.361	106.49
569.56	471.03
569.76	229.37
569.96	327.67
570.159	172.03
570.359	315.39
570.558	321.53
570.758	479.22
570.958	110.59
571.157	387.07
571.357	425.98
571.556	196.6
571.756	247.8
571.955	587.77
572.155	83.97
572.354	595.96
572.554	200.7
572.753	264.19
572.953	436.22
573.152	198.65
573.351	225.28
573.551	532.47
573.75	139.26
573.95	196.6
574.149	45.06
574.348	348.15
574.548	225.28
574.747	172.03
574.946	194.56
575.146	423.93
575.345	32.77
575.544	268.28
575.744	77.82
575.943	104.45
576.142	305.15
576.342	219.13
576.541	301.05
576.74	223.23
576.939	227.32
577.138	237.56
577.338	229.37
577.537	151.55
577.736	165.89
577.935	163.84
578.134	219.13
578.333	139.26
578.533	153.6
578.732	126.97
578.931	38.91
579.13	518.14
579.329	129.02
579.528	282.62
579.727	198.65
579.926	47.1
580.125	235.52
580.324	169.98
580.523	141.31
580.722	186.37
580.921	157.69
581.12	212.99
581.319	159.74
581.518	212.99
581.717	157.69
581.916	153.6
582.115	163.84
582.314	200.7
582.513	59.39
582.712	176.13
582.911	90.11
583.109	184.32
583.308	69.63
583.507	88.06
583.706	180.22
583.905	112.64
584.104	313.34
584.302	94.21
584.501	126.97
584.7	126.97
584.899	61.44
585.098	229.37
585.296	182.27
585.495	137.21
585.694	147.45
585.892	182.27
586.091	49.15
586.29	75.77
586.488	155.65
586.687	258.04
586.886	12.29
587.084	153.6
587.283	10.24
587.482	73.73
587.68	59.39
587.879	219.13
588.077	102.4
588.276	73.73
588.475	165.89
588.673	88.06
588.872	182.27
589.07	184.32
589.269	180.22
589.467	241.66
589.666	22.53
589.864	208.89
590.063	118.78
590.261	143.36
590.46	161.79
590.658	88.06
590.857	112.64
591.055	145.41
591.253	75.77
591.452	122.88
591.65	100.35
591.848	118.78
592.047	100.35
592.245	131.07
592.444	116.73
592.642	118.78
592.84	126.97
593.038	77.82
593.237	157.69
593.435	180.22
593.633	227.32
593.832	45.06
594.03	186.37
594.228	120.83
594.426	69.63
594.624	40.96
594.823	112.64
595.021	278.52
595.219	51.2
595.417	169.98
595.615	-8.19
595.813	75.77
596.012	49.15
596.21	176.13
596.408	-45.06
596.606	110.59
596.804	129.02
597.002	-53.25
597.2	112.64
597.398	129.02
597.596	104.45
597.794	108.54
597.992	-18.43
598.19	129.02
598.388	100.35
598.586	81.92
598.784	59.39
598.982	86.01
599.18	260.09
599.378	86.01
599.576	100.35
599.774	104.45
599.972	14.34
600.17	126.97
600.368	67.58
600.565	221.18
600.763	59.39
600.961	126.97
601.159	79.87
601.357	20.48
601.555	202.75
601.752	225.28
601.95	36.86
602.148	24.58
602.346	102.4
602.544	237.56
602.741	-36.86
602.939	59.39
603.137	-22.53
603.334	57.34
603.532	96.25
603.73	155.65
603.927	198.65
604.125	122.88
604.323	-53.25
604.52	167.93
604.718	100.35
604.916	145.41
605.113	-114.69
605.311	241.66
605.508	71.68
605.706	149.5
605.904	104.45
606.101	45.06
606.299	83.97
606.496	131.07
606.694	102.4
606.891	165.89
607.089	-28.67
607.286	-8.19
607.484	114.69
607.681	61.44
607.879	192.51
608.076	2.05
608.273	73.73
608.471	153.6
608.668	14.34
608.866	-2.05
609.063	-53.25
609.26	4.1
609.458	-34.82
609.655	153.6
609.852	-6.14
610.05	237.56
610.247	163.84
610.444	45.06
610.642	176.13
610.839	49.15
611.036	120.83
611.233	104.45
611.431	16.38
611.628	57.34
611.825	16.38
612.022	4.1
612.22	79.87
612.417	2.05
612.614	22.53
612.811	88.06
613.008	126.97
613.205	63.49
613.402	16.38
613.6	90.11
613.797	26.62
613.994	-18.43
614.191	104.45
614.388	110.59
614.585	-38.91
614.782	102.4
614.979	176.13
615.176	12.29
615.373	-61.44
615.57	163.84
615.767	55.3
615.964	110.59
616.161	-67.58
616.358	118.78
616.555	20.48
616.752	65.53
616.949	47.1
617.146	8.19
617.343	18.43
617.539	75.77
617.736	59.39
617.933	73.73
618.13	133.12
618.327	126.97
618.524	-71.68
618.721	47.1
618.917	-24.58
619.114	-14.34
619.311	83.97
619.508	-126.97
619.704	90.11
619.901	67.58
620.098	32.77
620.295	47.1
620.491	-55.3
620.688	-12.29
620.885	86.01
621.081	12.29
621.278	16.38
621.475	102.4
621.671	-4.1
621.868	61.44
622.065	-26.62
622.261	137.21
622.458	49.15
622.655	157.69
622.851	16.38
623.048	55.3
623.244	57.34
623.441	55.3
623.637	131.07
623.834	-26.62
624.03	-26.62
624.227	108.54
624.423	59.39
624.62	65.53
624.816	38.91
625.013	139.26
625.209	59.39
625.406	49.15
625.602	-92.16
625.798	53.25
625.995	-14.34
626.191	65.53
626.388	-51.2
626.584	143.36
626.78	-67.58
626.977	43.01
627.173	47.1
627.369	61.44
627.566	100.35
627.762	8.19
627.958	49.15
628.154	-38.91
628.351	47.1
628.547	-22.53
628.743	57.34
628.939	67.58
629.136	-34.82
629.332	2.05
629.528	2.05
629.724	61.44
629.92	49.15
630.116	-26.62
630.313	-61.44
630.509	-79.87
630.705	86.01
630.901	32.77
631.097	43.01
631.293	-2.05
631.489	-53.25
631.685	-36.86
631.881	38.91
632.077	47.1
632.273	81.92
632.469	10.24
632.665	96.25
632.861	-16.38
633.057	69.63
633.253	81.92
633.449	-2.05
633.645	-55.3
633.841	108.54
634.037	38.91
634.233	51.2
634.429	120.83
634.625	59.39
634.821	153.6
635.017	67.58
635.212	-38.91
635.408	10.24
635.604	34.82
635.8	61.44
635.996	-32.77
636.191	165.89
636.387	2.05
636.583	-36.86
636.779	30.72
636.975	16.38
637.17	55.3
637.366	96.25
637.562	-16.38
637.757	-22.53
637.953	45.06
638.149	-10.24
638.345	-14.34
638.54	-71.68
638.736	-24.58
638.931	49.15
639.127	-6.14
639.323	38.91
639.518	71.68
639.714	55.3
639.909	-10.24
640.105	163.84
640.301	18.43
640.496	143.36
640.692	92.16
640.887	-6.14
641.083	61.44
641.278	28.67
641.474	75.77
641.669	-22.53
641.865	51.2
642.06	45.06
642.256	-161.79
642.451	6.14
642.646	4.1
642.842	-4.1
643.037	96.25
643.233	67.58
643.428	92.16
643.623	-14.34
643.819	-79.87
644.014	14.34
644.209	47.1
644.405	-43.01
644.6	26.62
644.795	12.29
644.99	6.14
645.186	81.92
645.381	-36.86
645.576	-26.62
645.771	-65.54
645.967	-26.62
646.162	24.58
646.357	61.44
646.552	40.96
646.747	100.35
646.943	51.2
647.138	-34.82
647.333	6.14
647.528	-233.47
647.723	34.82
647.918	18.43
648.113	6.14
648.308	53.25
648.504	18.43
648.699	43.01
648.894	36.86
649.089	18.43
649.284	-26.62
649.479	59.39
649.674	-26.62
649.869	65.53
650.064	59.39
650.259	30.72
650.454	-57.34
650.649	-30.72
650.844	-73.73
651.038	65.53
651.233	67.58
651.428	57.34
651.623	18.43
651.818	-40.96
652.013	55.3
652.208	49.15
652.403	40.96
652.597	-16.38
652.792	-28.67
652.987	192.51
653.182	-18.43
653.377	24.58
653.571	65.53
653.766	-65.54
653.961	-38.91
654.156	114.69
654.35	-100.35
654.545	-65.54
654.74	-0
654.935	12.29
655.129	86.01
655.324	57.34
655.519	51.2
655.713	14.34
655.908	-20.48
656.102	108.54
656.297	26.62
656.492	88.06
656.686	51.2
656.881	102.4
657.075	18.43
657.27	104.45
657.464	-43.01
657.659	24.58
657.854	-100.35
658.048	36.86
658.243	77.82
658.437	-20.48
658.631	-188.41
658.826	135.17
659.02	-45.06
659.215	-30.72
659.409	-18.43
659.604	-16.38
659.798	-18.43
659.992	-10.24
660.187	-14.34
660.381	-32.77
660.576	-34.82
660.77	110.59
660.964	-61.44
661.159	12.29
661.353	131.07
661.547	-16.38
661.742	114.69
661.936	43.01
662.13	-24.58
662.324	69.63
662.519	-8.19
662.713	63.49
662.907	-49.15
663.101	51.2
663.295	61.44
663.49	-22.53
663.684	-24.58
663.878	-14.34
664.072	100.35
664.266	106.49
664.46	-10.24
664.654	47.1
664.849	24.58
665.043	-14.34
665.237	-26.62
665.431	-57.34
665.625	51.2
665.819	61.44
666.013	14.34
666.207	51.2
666.401	120.83
666.595	6.14
666.789	-28.67
666.983	-12.29
667.177	40.96
667.371	63.49
667.565	34.82
667.759	-10.24
667.953	-32.77
668.147	100.35
668.34	8.19
668.534	-2.05
668.728	-43.01
668.922	-75.77
669.116	106.49
669.31	57.34
669.504	-26.62
669.697	-0
669.891	-2.05
670.085	45.06
670.279	20.48
670.473	92.16
670.666	18.43
670.86	14.34
671.054	-0
671.248	75.77
671.441	-4.1
671.635	204.8
671.829	32.77
672.022	4.1
672.216	98.3
672.41	18.43
672.603	-120.83
672.797	45.06
672.99	81.92
673.184	38.91
673.378	22.53
673.571	32.77
673.765	92.16
673.958	73.73
674.152	40.96
674.345	143.36
674.539	40.96
674.733	-10.24
674.926	98.3
675.12	57.34
675.313	-45.06
675.506	57.34
675.7	18.43
675.893	51.2
676.087	167.93
676.28	55.3
676.474	180.22
676.667	106.49
676.86	-49.15
677.054	94.21
677.247	-61.44
677.441	22.53
677.634	20.48
677.827	-26.62
678.02	16.38
678.214	73.73
678.407	-67.58
678.6	22.53
678.794	65.53
678.987	90.11
679.18	-4.1
679.373	-4.1
679.567	16.38
679.76	36.86
679.953	-4.1
680.146	-43.01
680.339	100.35
680.533	49.15
680.726	61.44
680.919	24.58
681.112	51.2
681.305	-73.73
681.498	-8.19
681.691	-2.05
681.884	92.16
682.077	2.05
682.271	-94.21
682.464	69.63
682.657	-34.82
682.85	16.38
683.043	92.16
683.236	40.96
683.429	-10.24
683.622	-79.87
683.815	-38.91
684.008	47.1
684.201	8.19
684.393	-18.43
684.586	47.1
684.779	26.62
684.972	34.82
685.165	-22.53
685.358	12.29
685.551	40.96
685.744	18.43
685.937	-2.05
686.129	6.14
686.322	124.93
686.515	47.1
686.708	-73.73
686.901	59.39
687.093	-2.05
687.286	83.97
687.479	47.1
687.672	-75.77
687.864	-8.19
688.057	88.06
688.25	-45.06
688.442	63.49
688.635	4.1
688.828	-40.96
689.02	51.2
689.213	-20.48
689.406	34.82
689.598	-10.24
689.791	20.48
689.984	22.53
690.176	75.77
690.369	-77.82
690.561	-30.72
690.754	-30.72
690.946	43.01
691.139	51.2
691.331	79.87
691.524	16.38
691.716	43.01
691.909	-77.82
692.101	-18.43
692.294	-16.38
692.486	-71.68
692.679	16.38
692.871	-12.29
693.063	-38.91
693.256	63.49
693.448	92.16
693.641	-6.14
693.833	43.01
694.025	86.01
694.218	139.26
694.41	16.38
694.602	516.09
694.795	3954.63
694.987	7649.16
695.179	11941.71
695.372	9756.52
695.564	7874.44
695.756	6344.61
695.948	4063.17
696.14	2992.08
696.333	1003.5
696.525	563.19
696.717	98.3
696.909	-32.77
697.101	143.36
697.294	92.16
697.486	4.1
697.678	-22.53
697.87	79.87
698.062	-43.01
698.254	20.48
698.446	-53.25
698.638	61.44
698.83	18.43
699.022	40.96
699.215	-77.82
699.407	75.77
699.599	-79.87
699.791	-12.29
699.983	69.63
700.175	79.87
700.367	63.49
700.558	149.5
700.75	28.67
700.942	92.16
701.134	18.43
701.326	110.59
701.518	-2.05
701.71	45.06
701.902	-4.1
702.094	16.38
702.286	-94.21
702.477	73.73
702.669	67.58
702.861	-51.2
703.053	75.77
703.245	-36.86
703.436	45.06
703.628	83.97
703.82	12.29
704.012	28.67
704.203	-12.29
704.395	65.53
704.587	174.08
704.779	305.15
704.97	3465.16
705.162	7575.44
705.354	8603.52
705.545	8650.62
705.737	6940.57
705.929	4863.93
706.12	3614.66
706.312	1816.55
706.503	1021.94
706.695	258.04
706.887	204.8
707.078	-55.3
707.27	10.24
707.461	6.14
707.653	16.38
707.844	10.24
708.036	-8.19
708.227	38.91
708.419	-75.77
708.61	-32.77
708.802	59.39
708.993	28.67
709.185	92.16
709.376	71.68
709.567	22.53
709.759	67.58
709.95	81.92
710.141	92.16
710.333	-26.62
710.524	43.01
710.716	-114.69
710.907	-0
711.098	-30.72
711.289	102.4
711.481	71.68
711.672	12.29
711.863	-16.38
712.055	43.01
712.246	-69.63
712.437	28.67
712.628	-53.25
712.82	-77.82
713.011	-40.96
713.202	14.34
713.393	-57.34
713.584	-36.86
713.775	45.06
713.967	61.44
714.158	96.25
714.349	34.82
714.54	-96.25
714.731	88.06
714.922	10.24
715.113	98.3
715.304	32.77
715.495	69.63
715.686	4.1
715.877	-32.77
716.068	79.87
716.259	28.67
716.45	49.15
716.641	45.06
716.832	32.77
717.023	133.12
717.214	16.38
717.405	8.19
717.596	51.2
717.787	26.62
717.978	10.24
718.169	-4.1
718.36	-14.34
718.55	126.97
718.741	-100.35
718.932	94.21
719.123	100.35
719.314	-40.96
719.505	-2.05
719.695	86.01
719.886	100.35
720.077	-100.35
720.268	-26.62
720.458	163.84
720.649	79.87
720.84	51.2
721.031	-22.53
721.221	28.67
721.412	26.62
721.603	16.38
721.793	-16.38
721.984	10.24
722.175	63.49
722.365	71.68
722.556	112.64
722.746	-4.1
722.937	69.63
723.128	-38.91
723.318	51.2
723.509	102.4
723.699	20.48
723.89	63.49
724.08	2.05
724.271	86.01
724.461	30.72
724.652	20.48
724.842	6.14
725.033	24.58
725.223	-14.34
725.414	-28.67
725.604	77.82
725.794	139.26
725.985	114.69
726.175	223.23
726.366	153.6
726.556	65.53
726.746	141.31
726.937	-30.72
727.127	2.05
727.317	53.25
727.508	20.48
727.698	-30.72
727.888	-96.25
728.079	59.39
728.269	-61.44
728.459	-79.87
728.649	-92.16
728.84	-86.01
729.03	47.1
729.22	14.34
729.41	96.25
729.6	151.55
729.791	-75.77
729.981	-86.01
730.171	-45.06
730.361	16.38
730.551	-22.53
730.741	38.91
730.931	102.4
731.121	45.06
731.311	108.54
731.502	14.34
731.692	-67.58
731.882	34.82
732.072	-4.1
732.262	16.38
732.452	-61.44
732.642	-12.29
732.832	16.38
733.022	-22.53
733.212	69.63
733.402	-26.62
733.591	-28.67
733.781	-20.48
733.971	55.3
734.161	28.67
734.351	26.62
734.541	86.01
734.731	94.21
734.921	-98.3
735.111	14.34
735.3	79.87
735.49	83.97
735.68	28.67
735.87	40.96
736.06	36.86
736.249	346.11
736.439	999.41
736.629	5111.73
736.819	9064.31
737.008	13983.53
737.198	14872.35
737.388	11210.58
737.577	9680.75
737.767	7753.61
737.957	5009.33
738.146	3942.34
738.336	1708.01
738.526	1177.58
738.715	536.57
738.905	75.77
739.094	104.45
739.284	6.14
739.474	-16.38
739.663	75.77
739.853	131.07
740.042	-2.05
740.232	26.62
740.421	26.62
740.611	112.64
740.8	26.62
740.99	88.06
741.179	26.62
741.369	47.1
741.558	-0
741.748	-40.96
741.937	18.43
742.126	110.59
742.316	16.38
742.505	43.01
742.695	24.58
742.884	-47.1
743.073	24.58
743.263	12.29
743.452	16.38
743.641	143.36
743.831	-49.15
744.02	-26.62
744.209	79.87
744.398	83.97
744.588	-40.96
744.777	-108.54
744.966	28.67
745.155	129.02
745.345	-83.97
745.534	184.32
745.723	159.74
745.912	-8.19
746.101	104.45
746.29	57.34
746.48	135.17
746.669	49.15
746.858	4.1
747.047	-8.19
747.236	-145.41
747.425	43.01
747.614	18.43
747.803	141.31
747.992	69.63
748.181	65.53
748.37	204.8
748.559	360.44
748.748	3510.22
748.937	6414.24
749.126	8206.21
749.315	10094.44
749.504	10481.5
749.693	9545.58
749.882	12332.87
750.071	14114.6
750.26	14520.1
750.449	14251.81
750.638	11810.64
750.826	9086.84
751.015	7782.28
751.204	5005.24
751.393	3686.34
751.582	2496.47
751.771	1257.45
751.959	360.44
752.148	391.16
752.337	81.92
752.526	116.73
752.714	88.06
752.903	-16.38
753.092	67.58
753.281	24.58
753.469	22.53
753.658	75.77
753.847	-18.43
754.035	40.96
754.224	81.92
754.413	20.48
754.601	-28.67
754.79	116.73
754.979	34.82
755.167	-4.1
755.356	83.97
755.544	32.77
755.733	55.3
755.921	28.67
756.11	-51.2
756.298	-43.01
756.487	-51.2
756.675	86.01
756.864	-32.77
757.052	-8.19
757.241	-4.1
757.429	124.93
757.618	38.91
757.806	135.17
757.995	40.96
758.183	-45.06
758.371	-67.58
758.56	4.1
758.748	-69.63
758.937	-4.1
759.125	-24.58
759.313	-100.35
759.502	110.59
759.69	12.29
759.878	-83.97
760.066	-12.29
760.255	-6.14
760.443	75.77
760.631	116.73
760.819	77.82
761.008	137.21
761.196	438.27
761.384	946.16
761.572	3751.88
761.761	5750.7
761.949	11898.7
762.137	20154.06
762.325	23613.08
762.513	22869.67
762.701	22472.36
762.889	16996.09
763.077	14139.18
763.266	11423.57
763.454	8505.21
763.642	5816.23
763.83	4566.97
764.018	2473.95
764.206	1718.25
764.394	978.93
764.582	417.79
764.77	137.21
764.958	221.18
765.146	32.77
765.334	-59.39
765.522	86.01
765.71	47.1
765.898	12.29
766.085	149.5
766.273	112.64
766.461	16.38
766.649	-40.96
766.837	86.01
767.025	69.63
767.213	-51.2
767.401	63.49
767.588	-28.67
767.776	69.63
767.964	-20.48
768.152	61.44
768.339	18.43
768.527	-153.6
768.715	-18.43
768.903	-36.86
769.09	-14.34
769.278	57.34
769.466	28.67
769.654	-8.19
769.841	40.96
770.029	49.15
770.217	104.45
770.404	-24.58
770.592	256
770.779	1626.09
770.967	5676.97
771.155	9809.77
771.342	12193.61
771.53	8951.67
771.717	7845.77
771.905	6311.84
772.092	4313.02
772.28	2168.8
772.467	1839.08
772.655	397.31
772.842	100.35
773.03	204.8
773.217	79.87
773.405	-4.1
773.592	126.97
773.78	20.48
773.967	16.38
774.154	4.1
774.342	106.49
774.529	69.63
774.717	-49.15
774.904	-18.43
775.091	16.38
775.279	108.54
775.466	124.93
775.653	-4.1
775.841	6.14
776.028	129.02
776.215	-4.1
776.402	-32.77
776.59	83.97
776.777	-2.05
776.964	-40.96
777.151	-40.96
777.338	51.2
777.526	26.62
777.713	-20.48
777.9	-14.34
778.087	-8.19
778.274	22.53
778.461	73.73
778.649	-0
778.836	36.86
779.023	98.3
779.21	8.19
779.397	118.78
779.584	57.34
779.771	102.4
779.958	36.86
780.145	65.53
780.332	96.25
780.519	-43.01
780.706	-10.24
780.893	49.15
781.08	28.67
781.267	24.58
781.454	-47.1
781.641	-34.82
781.828	30.72
782.015	75.77
782.202	38.91
782.388	108.54
782.575	-36.86
782.762	-45.06
782.949	-10.24
783.136	-6.14
783.323	12.29
783.509	106.49
783.696	-26.62
783.883	-18.43
784.07	-92.16
784.257	63.49
784.443	67.58
784.63	8.19
784.817	45.06
785.004	30.72
785.19	30.72
785.377	-94.21
785.564	28.67
785.75	79.87
785.937	43.01
786.124	57.34
786.31	24.58
786.497	96.25
786.683	-4.1
786.87	53.25
787.057	51.2
787.243	61.44
787.43	-22.53
787.616	98.3
787.803	40.96
787.989	-22.53
788.176	-8.19
788.362	65.53
788.549	-24.58
788.735	135.17
788.922	-2.05
789.108	38.91
789.295	-28.67
789.481	116.73
789.668	75.77
789.854	122.88
790.04	55.3
790.227	-63.49
790.413	-26.62
790.599	-26.62
790.786	6.14
790.972	55.3
791.158	6.14
791.345	-12.29
791.531	45.06
791.717	51.2
791.904	94.21
792.09	83.97
792.276	45.06
792.462	83.97
792.649	-0
792.835	53.25
793.021	86.01
793.207	10.24
793.393	696.31
793.58	4333.5
793.766	7376.78
793.952	6752.15
794.138	6852.5
794.324	5580.71
794.51	3407.82
794.696	1918.95
794.882	1435.63
795.069	309.24
795.255	155.65
795.441	-26.62
795.627	92.16
795.813	-10.24
795.999	102.4
796.185	-47.1
796.371	-40.96
796.557	49.15
796.743	32.77
796.929	49.15
797.115	118.78
797.3	49.15
797.486	151.55
797.672	180.22
797.858	10.24
798.044	-20.48
798.23	-32.77
798.416	124.93
798.602	53.25
798.788	-40.96
798.973	-71.68
799.159	122.88
799.345	634.87
799.531	1669.09
799.717	2703.32
799.902	4212.67
800.088	5513.13
800.274	6731.67
800.46	9754.48
800.645	10667.87
800.831	7657.36
801.017	5156.79
801.202	5085.11
801.388	3049.43
801.574	1294.32
801.759	442.36
801.945	321.53
802.131	133.12
802.316	112.64
802.502	45.06
802.687	96.25
802.873	57.34
803.058	-12.29
803.244	14.34
803.43	73.73
803.615	10.24
803.801	-2.05
803.986	65.53
804.172	-12.29
804.357	45.06
804.543	-47.1
804.728	59.39
804.913	2.05
805.099	43.01
805.284	-59.39
805.47	100.35
805.655	49.15
805.84	14.34
806.026	141.31
806.211	88.06
806.397	36.86
806.582	-40.96
806.767	-36.86
806.953	129.02
807.138	73.73
807.323	32.77
807.508	34.82
807.694	38.91
807.879	26.62
808.064	-20.48
808.249	147.45
808.435	227.32
808.62	366.59
808.805	653.3
808.99	3459.02
809.175	6309.79
809.361	8927.1
809.546	9899.88
809.731	12300.1
809.916	11677.52
810.101	10964.82
810.286	14202.66
810.471	19132.12
810.656	18540.26
810.841	17164.03
811.026	18319.08
811.211	16195.34
811.396	11945.8
811.581	10162.02
811.766	9072.5
811.951	7016.34
812.136	4335.55
812.321	3960.77
812.506	3043.28
812.691	1830.88
812.876	720.88
813.061	858.1
813.246	366.59
813.431	94.21
813.616	24.58
813.801	137.21
813.986	49.15
814.17	-34.82
814.355	24.58
814.54	139.26
814.725	118.78
814.91	-26.62
815.094	81.92
815.279	22.53
815.464	94.21
815.649	-32.77
815.833	22.53
816.018	26.62
816.203	-2.05
816.388	14.34
816.572	38.91
816.757	-14.34
816.942	36.86
817.126	14.34
817.311	14.34
817.496	45.06
817.68	112.64
817.865	65.53
818.049	129.02
818.234	53.25
818.419	43.01
818.603	49.15
818.788	20.48
818.972	34.82
819.157	-2.05
819.341	-26.62
819.526	-43.01
819.71	24.58
819.895	-55.3
820.079	73.73
820.264	65.53
820.448	24.58
820.633	43.01
820.817	143.36
821.001	-36.86
821.186	92.16
821.37	114.69
821.554	18.43
821.739	2.05
821.923	-40.96
822.108	-0
822.292	-38.91
822.476	75.77
822.66	38.91
822.845	57.34
823.029	61.44
823.213	6.14
823.398	-28.67
823.582	67.58
823.766	104.45
823.95	-45.06
824.134	18.43
824.319	-75.77
824.503	-51.2
824.687	55.3
824.871	34.82
825.055	-24.58
825.239	67.58
825.423	63.49
825.608	1480.68
825.792	1282.03
825.976	1978.34
826.16	1916.9
826.344	1464.3
826.528	149.5
826.712	133.12
826.896	-77.82
827.08	45.06
827.264	98.3
827.448	8.19
827.632	-34.82
827.816	40.96
828	88.06
828.184	-34.82
828.368	83.97
828.552	96.25
828.736	-10.24
828.919	-32.77
829.103	94.21
829.287	215.04
829.471	-10.24
829.655	-86.01
829.839	104.45
830.023	69.63
830.206	10.24
830.39	-16.38
830.574	-4.1
830.758	-26.62
830.941	36.86
831.125	-22.53
831.309	43.01
831.493	12.29
831.676	20.48
831.86	-22.53
832.044	43.01
832.227	59.39
832.411	-26.62
832.595	36.86
832.778	-79.87
832.962	-28.67
833.146	43.01
833.329	-8.19
833.513	-26.62
833.696	8.19
833.88	-71.68
834.064	81.92
834.247	61.44
834.431	32.77
834.614	34.82
834.798	-8.19
834.981	-2.05
835.165	-26.62
835.348	-49.15
835.532	34.82
835.715	-20.48
835.898	38.91
836.082	6.14
836.265	-73.73
836.449	49.15
836.632	-71.68
836.815	16.38
836.999	36.86
837.182	-10.24
837.365	36.86
837.549	-18.43
837.732	32.77
837.915	104.45
838.099	22.53
838.282	40.96
838.465	-24.58
838.648	-16.38
838.832	55.3
839.015	73.73
839.198	67.58
839.381	38.91
839.565	-53.25
839.748	69.63
839.931	1347.56
840.114	4018.11
840.297	5420.97
840.48	4214.72
840.663	4739
840.847	4554.68
841.03	3274.7
841.213	1658.85
841.396	2766.81
841.579	3669.96
841.762	5513.13
841.945	5912.49
842.128	5988.26
842.311	5779.37
842.494	4558.78
842.677	1806.31
842.86	1046.51
843.043	626.68
843.226	425.98
843.409	26.62
843.592	49.15
843.775	12.29
843.958	34.82
844.141	-86.01
844.323	-57.34
844.506	-22.53
844.689	32.77
844.872	-40.96
845.055	-65.54
845.238	137.21
845.42	-8.19
845.603	2.05
845.786	92.16
845.969	28.67
846.152	49.15
846.334	26.62
846.517	96.25
846.7	106.49
846.883	81.92
847.065	55.3
847.248	-16.38
847.431	8.19
847.613	118.78
847.796	30.72
847.979	65.53
848.161	83.97
848.344	34.82
848.526	-26.62
848.709	-18.43
848.892	96.25
849.074	-75.77
849.257	-20.48
849.439	61.44
849.622	-47.1
849.804	83.97
849.987	-2.05
850.169	40.96
850.352	90.11
850.534	75.77
850.717	-30.72
850.899	26.62
851.082	77.82
851.264	34.82
851.446	20.48
851.629	-28.67
851.811	94.21
851.994	38.91
852.176	40.96
852.358	124.93
852.541	110.59
852.723	-75.77
852.905	116.73
853.088	-32.77
853.27	-4.1
853.452	43.01
853.635	-20.48
853.817	10.24
853.999	77.82
854.181	83.97
854.363	124.93
854.546	49.15
854.728	26.62
854.91	118.78
855.092	-12.29
855.274	14.34
855.457	45.06
855.639	-6.14
855.821	-24.58
856.003	26.62
856.185	-28.67
856.367	6.14
856.549	-79.87
856.731	100.35
856.913	67.58
857.095	69.63
857.277	51.2
857.459	-32.77
857.641	24.58
857.823	-67.58
858.005	-16.38
858.187	-45.06
858.369	40.96
858.551	-149.5
858.733	83.97
858.915	65.53
859.097	94.21
859.279	-36.86
859.461	108.54
859.643	53.25
859.824	-8.19
860.006	-69.63
860.188	10.24
860.37	45.06
860.552	12.29
860.734	-38.91
860.915	-4.1
861.097	-26.62
861.279	161.79
861.461	-24.58
861.642	8.19
861.824	2.05
862.006	73.73
862.188	-71.68
862.369	20.48
862.551	137.21
862.733	-57.34
862.914	-49.15
863.096	71.68
863.278	73.73
863.459	30.72
863.641	-40.96
863.822	-26.62
864.004	26.62
864.185	141.31
864.367	20.48
864.549	-83.97
864.73	88.06
864.912	14.34
865.093	61.44
865.275	-12.29
865.456	18.43
865.638	22.53
865.819	34.82
866.001	-20.48
866.182	24.58
866.363	26.62
866.545	57.34
866.726	16.38
866.908	12.29
867.089	53.25
867.27	-14.34
867.452	55.3
867.633	102.4
867.814	112.64
867.996	30.72
868.177	16.38
868.358	79.87
868.54	-55.3
868.721	-28.67
868.902	102.4
869.083	-51.2
869.265	47.1
869.446	8.19
869.627	-90.11
869.808	79.87
869.989	88.06
870.171	63.49
870.352	14.34
870.533	-38.91
870.714	30.72
870.895	90.11
871.076	69.63
871.257	18.43
871.438	75.77
871.619	-16.38
871.801	118.78
871.982	38.91
872.163	63.49
872.344	-86.01
872.525	10.24
872.706	63.49
872.887	18.43
873.068	88.06
873.249	98.3
873.43	67.58
873.61	-2.05
873.791	69.63
873.972	94.21
874.153	55.3
874.334	114.69
874.515	-83.97
874.696	-53.25
874.877	4.1
875.058	-28.67
875.238	96.25
875.419	-26.62
875.6	-59.39
875.781	-61.44
875.962	20.48
876.142	49.15
876.323	81.92
876.504	-176.13
876.685	-83.97
876.865	149.5
877.046	51.2
877.227	-20.48
877.407	26.62
877.588	-14.34
877.769	98.3
877.949	114.69
878.13	-65.54
878.311	-65.54
878.491	69.63
878.672	49.15
878.853	40.96
879.033	100.35
879.214	-16.38
879.394	-2.05
879.575	28.67
879.755	-6.14
879.936	-47.1
880.116	-22.53
880.297	-6.14
880.477	-40.96
880.658	-32.77
880.838	26.62
881.019	-75.77
881.199	-30.72
881.38	16.38
881.56	73.73
881.74	8.19
881.921	86.01
882.101	32.77
882.281	79.87
882.462	8.19
882.642	36.86
882.822	-38.91
883.003	40.96
883.183	51.2
883.363	-55.3
883.544	28.67
883.724	12.29
883.904	14.34
884.084	14.34
884.265	28.67
884.445	49.15
884.625	-14.34
884.805	114.69
884.985	-8.19
885.166	73.73
885.346	40.96
885.526	79.87
885.706	92.16
885.886	18.43
886.066	83.97
886.246	2.05
886.426	53.25
886.606	94.21
886.787	-71.68
886.967	-24.58
887.147	131.07
887.327	32.77
887.507	-14.34
887.687	47.1
887.867	-40.96
888.047	112.64
888.227	36.86
888.406	-6.14
888.586	-98.3
888.766	-8.19
888.946	77.82
889.126	116.73
889.306	51.2
889.486	10.24
889.666	-61.44
889.846	49.15
890.025	-14.34
890.205	110.59
890.385	59.39
890.565	47.1
890.745	-14.34
890.924	32.77
891.104	14.34
891.284	73.73
891.464	77.82
891.643	98.3
891.823	-2.05
892.003	53.25
892.183	65.53
892.362	2.05
892.542	22.53
892.722	45.06
892.901	6.14
893.081	47.1
893.26	26.62
893.44	-8.19
893.62	126.97
893.799	-106.49
893.979	22.53
894.158	-141.31
894.338	8.19
894.517	30.72
894.697	28.67
894.877	24.58
895.056	20.48
895.236	-79.87
895.415	36.86
895.594	124.93
895.774	-16.38
895.953	81.92
896.133	18.43
896.312	43.01
896.492	4.1
896.671	-51.2
896.85	-47.1
897.03	26.62
897.209	124.93
897.388	61.44
897.568	-79.87
897.747	77.82
897.926	-16.38
898.106	34.82
898.285	137.21
898.464	47.1
898.643	-47.1
898.823	-43.01
899.002	-153.6
899.181	92.16
899.36	-8.19
899.54	-22.53
899.719	-49.15
899.898	26.62
900.077	12.29
900.256	26.62
900.435	122.88
900.614	-30.72
900.794	6.14
900.973	90.11
901.152	57.34
901.331	112.64
901.51	-51.2
901.689	59.39
901.868	14.34
902.047	120.83
902.226	26.62
902.405	-20.48
902.584	-24.58
902.763	30.72
902.942	151.55
903.121	-16.38
903.3	-67.58
903.479	-8.19
903.658	79.87
903.837	-73.73
904.015	49.15
904.194	49.15
904.373	12.29
904.552	-14.34
904.731	-20.48
904.91	24.58
905.089	32.77
905.267	69.63
905.446	-83.97
905.625	32.77
905.804	18.43
905.982	-43.01
906.161	-14.34
906.34	-98.3
906.519	59.39
906.697	14.34
906.876	-8.19
907.055	47.1
907.233	26.62
907.412	32.77
907.591	-12.29
907.769	32.77
907.948	40.96
908.127	51.2
908.305	88.06
908.484	34.82
908.662	-14.34
908.841	67.58
909.019	16.38
909.198	-104.45
909.377	38.91
909.555	-73.73
909.734	131.07
909.912	104.45
910.09	83.97
910.269	30.72
910.447	131.07
910.626	53.25
910.804	-20.48
910.983	63.49
911.161	-63.49
911.339	-71.68
911.518	90.11
911.696	-38.91
911.875	-49.15
912.053	135.17
912.231	-4.1
912.41	55.3
912.588	51.2
912.766	-40.96
912.944	36.86
913.123	65.53
913.301	172.03
913.479	32.77
913.657	4.1
913.836	106.49
914.014	16.38
914.192	-38.91
914.37	32.77
914.548	-10.24
914.727	67.58
914.905	86.01
915.083	-34.82
915.261	161.79
915.439	-40.96
915.617	16.38
915.795	-40.96
915.973	-59.39
916.151	-47.1
916.329	6.14
916.508	-8.19
916.686	-69.63
916.864	-53.25
917.042	-28.67
917.22	77.82
917.398	55.3
917.575	75.77
917.753	-0
917.931	30.72
918.109	83.97
918.287	90.11
918.465	-0
918.643	28.67
918.821	-55.3
918.999	-8.19
919.177	30.72
919.354	110.59
919.532	59.39
919.71	-32.77
919.888	-38.91
920.066	22.53
920.243	22.53
920.421	75.77
920.599	51.2
920.777	51.2
920.954	-8.19
921.132	-28.67
921.31	53.25
921.488	-6.14
921.665	18.43
921.843	-6.14
922.021	28.67
922.198	-8.19
922.376	83.97
922.553	43.01
922.731	100.35
922.909	79.87
923.086	34.82
923.264	63.49
923.441	43.01
923.619	24.58
923.796	-38.91
923.974	-32.77
924.152	-36.86
924.329	-12.29
924.507	-14.34
924.684	165.89
924.861	61.44
925.039	36.86
925.216	24.58
925.394	118.78
925.571	92.16
925.749	73.73
925.926	30.72
926.103	-67.58
926.281	71.68
926.458	12.29
926.635	-16.38
926.813	-22.53
926.99	-94.21
927.167	2.05
927.345	-6.14
927.522	8.19
927.699	59.39
927.876	126.97
928.054	-32.77
928.231	-47.1
928.408	65.53
928.585	-47.1
928.763	-38.91
928.94	63.49
929.117	129.02
929.294	102.4
929.471	22.53
929.648	-43.01
929.825	18.43
930.003	-4.1
930.18	-61.44
930.357	61.44
930.534	-22.53
930.711	73.73
930.888	53.25
931.065	-10.24
931.242	20.48
931.419	28.67
931.596	-22.53
931.773	-133.12
931.95	-36.86
932.127	16.38
932.304	-6.14
932.481	71.68
932.658	-43.01
932.835	49.15
933.011	16.38
933.188	-14.34
933.365	110.59
933.542	14.34
933.719	32.77
933.896	26.62
934.073	-151.55
934.249	34.82
934.426	-22.53
934.603	-59.39
934.78	-26.62
934.957	-12.29
935.133	141.31
935.31	116.73
935.487	67.58
935.664	10.24
935.84	-0
936.017	-63.49
936.194	104.45
936.37	-88.06
936.547	-38.91
936.724	139.26
936.9	20.48
937.077	79.87
937.253	22.53
937.43	-57.34
937.607	30.72
937.783	-71.68
937.96	16.38
938.136	49.15
938.313	114.69
938.489	30.72
938.666	14.34
938.842	16.38
939.019	20.48
939.195	-32.77
939.372	-16.38
939.548	55.3
939.725	55.3
939.901	14.34
940.077	49.15
940.254	8.19
940.43	-28.67
940.607	-59.39
940.783	6.14
940.959	51.2
941.136	59.39
941.312	104.45
941.488	-14.34
941.665	14.34
941.841	71.68
942.017	106.49
942.193	65.53
942.37	28.67
942.546	-8.19
942.722	26.62
942.898	14.34
943.074	-10.24
943.251	71.68
943.427	4.1
943.603	120.83
943.779	51.2
943.955	79.87
944.131	94.21
944.308	6.14
944.484	69.63
944.66	49.15
944.836	-59.39
945.012	38.91
945.188	-4.1
945.364	92.16
945.54	-12.29
945.716	18.43
945.892	83.97
946.068	14.34
946.244	-20.48
946.42	49.15
946.596	-57.34
946.772	86.01
946.948	-114.69
947.124	-24.58
947.3	118.78
947.475	157.69
947.651	16.38
947.827	28.67
948.003	-4.1
948.179	36.86
948.355	-40.96
948.531	18.43
948.706	-2.05
948.882	65.53
949.058	-114.69
949.234	65.53
949.409	-102.4
949.585	-67.58
949.761	-61.44
949.937	34.82
950.112	-28.67
950.288	81.92
950.464	131.07
950.639	61.44
950.815	43.01
950.991	51.2
951.166	53.25
951.342	47.1
951.518	65.53
951.693	10.24
951.869	-57.34
952.044	59.39
952.22	102.4
952.395	-26.62
952.571	4.1
952.747	47.1
952.922	-28.67
953.098	96.25
953.273	67.58
953.448	-36.86
953.624	-67.58
953.799	34.82
953.975	-14.34
954.15	10.24
954.326	-8.19
954.501	38.91
954.676	67.58
954.852	-26.62
955.027	69.63
955.203	-10.24
955.378	88.06
955.553	118.78
955.729	-2.05
955.904	-147.45
956.079	55.3
956.254	133.12
956.43	-2.05
956.605	86.01
956.78	-122.88
956.955	96.25
957.131	-63.49
957.306	47.1
957.481	98.3
957.656	8.19
957.831	73.73
958.007	-6.14
958.182	67.58
958.357	147.45
958.532	51.2
958.707	14.34
958.882	38.91
959.057	4.1
959.232	8.19
959.407	63.49
959.582	106.49
959.757	139.26
959.932	86.01
960.107	24.58
960.282	38.91
960.457	69.63
960.632	-16.38
960.807	38.91
960.982	32.77
961.157	-10.24
961.332	22.53
961.507	-98.3
961.682	26.62
961.857	-16.38
962.032	16.38
962.206	-145.41
962.381	-59.39
962.556	69.63
962.731	24.58
962.906	-88.06
963.081	43.01
963.255	59.39
963.43	-38.91
963.605	57.34
963.78	-30.72
963.954	-20.48
964.129	114.69
964.304	38.91
964.479	-12.29
964.653	-45.06
964.828	38.91
965.003	26.62
965.177	45.06
965.352	-55.3
965.526	16.38
965.701	100.35
965.876	45.06
966.05	-88.06
966.225	55.3
966.399	8.19
966.574	-59.39
966.748	8.19
966.923	88.06
967.098	55.3
967.272	-45.06
967.446	18.43
967.621	2.05
967.795	81.92
967.97	-61.44
968.144	57.34
968.319	34.82
968.493	-22.53
968.668	18.43
968.842	26.62
969.016	38.91
969.191	40.96
969.365	-22.53
969.539	-6.14
969.714	34.82
969.888	-26.62
970.062	77.82
970.237	22.53
970.411	-47.1
970.585	94.21
970.759	122.88
970.934	-10.24
971.108	43.01
971.282	-16.38
971.456	-4.1
971.63	110.59
971.805	-79.87
971.979	-36.86
972.153	8.19
972.327	43.01
972.501	22.53
972.675	36.86
972.849	-18.43
973.024	28.67
973.198	-69.63
973.372	-26.62
973.546	63.49
973.72	47.1
973.894	12.29
974.068	8.19
974.242	88.06
974.416	-69.63
974.59	32.77
974.764	-36.86
974.938	-22.53
975.112	-2.05
975.286	32.77
975.46	53.25
975.633	-81.92
975.807	53.25
975.981	92.16
976.155	18.43
976.329	-0
976.503	28.67
976.677	-59.39
976.85	126.97
977.024	-16.38
977.198	30.72
977.372	-16.38
977.546	106.49
977.719	-102.4
977.893	51.2
978.067	12.29
978.241	45.06
978.414	-36.86
978.588	-18.43
978.762	38.91
978.935	59.39
979.109	14.34
979.283	73.73
979.456	110.59
979.63	32.77
979.804	4.1
979.977	20.48
980.151	-75.77
980.324	116.73
980.498	16.38
980.671	69.63
980.845	-45.06
981.018	110.59
981.192	-18.43
981.365	26.62
981.539	53.25
981.712	-32.77
981.886	-129.02
982.059	-45.06
982.233	-67.58
982.406	4.1
982.58	116.73
982.753	120.83
982.926	-118.78
983.1	92.16
983.273	86.01
983.446	55.3
983.62	10.24
983.793	65.53
983.966	32.77
984.14	36.86
984.313	28.67
984.486	69.63
984.66	-40.96
984.833	100.35
985.006	61.44
985.179	67.58
985.352	45.06
985.526	10.24
985.699	-4.1
985.872	36.86
986.045	110.59
986.218	65.53
986.391	-2.05
986.565	77.82
986.738	-55.3
986.911	-49.15
987.084	43.01
987.257	49.15
987.43	30.72
987.603	8.19
987.776	38.91
987.949	81.92
988.122	-69.63
988.295	-67.58
988.468	30.72
988.641	-51.2
988.814	-49.15
988.987	-16.38
989.16	-14.34
989.333	10.24
989.506	-12.29
989.679	-16.38
989.852	124.93
990.025	75.77
990.197	88.06
990.37	45.06
990.543	-61.44
990.716	14.34
990.889	65.53
991.062	-49.15
991.234	-69.63
991.407	-155.65
991.58	6.14
991.753	22.53
991.925	34.82
992.098	77.82
992.271	-14.34
992.444	-14.34
992.616	8.19
992.789	-24.58
992.962	26.62
993.134	22.53
993.307	-18.43
993.479	-88.06
993.652	4.1
993.825	49.15
993.997	92.16
994.17	-14.34
994.342	4.1
994.515	-40.96
994.688	81.92
994.86	51.2
995.033	-14.34
995.205	30.72
995.378	24.58
995.55	-51.2
995.723	-14.34
995.895	61.44
996.067	-12.29
996.24	65.53
996.412	143.36
996.585	-22.53
996.757	69.63
996.929	10.24
997.102	16.38
997.274	-30.72
997.447	71.68
997.619	26.62
997.791	98.3
997.964	-20.48
998.136	63.49
998.308	6.14
998.48	53.25
998.653	96.25
998.825	-57.34
998.997	53.25
999.169	-55.3
999.342	38.91
999.514	-147.45
999.686	114.69
999.858	-10.24
1000.03	26.62
1000.202	-86.01
1000.374	-24.58
1000.547	-2.05
1000.719	-49.15
1000.891	28.67
1001.063	14.34
1001.235	-90.11
1001.407	-106.49
1001.579	-79.87
1001.751	77.82
1001.923	-6.14
1002.095	-30.72
1002.267	30.72
1002.439	4.1
1002.611	-38.91
1002.783	67.58
1002.955	-34.82
1003.127	20.48
1003.299	61.44
1003.471	10.24
1003.643	77.82
1003.815	-47.1
1003.986	14.34
1004.158	79.87
1004.33	14.34
1004.502	-8.19
1004.674	14.34
1004.846	59.39
1005.017	-51.2
1005.189	45.06
1005.361	-8.19
1005.533	-36.86
1005.704	18.43
1005.876	-47.1
1006.048	92.16
1006.22	-77.82
1006.391	-28.67
1006.563	38.91
1006.735	65.53
1006.906	-77.82
1007.078	-165.89
1007.25	55.3
1007.421	14.34
1007.593	-20.48
1007.764	-20.48
1007.936	151.55
1008.108	-36.86
1008.279	69.63
1008.451	-59.39
1008.622	67.58
1008.794	-28.67
1008.965	71.68
1009.137	-10.24
1009.308	10.24
1009.48	14.34
1009.651	120.83
1009.823	30.72
1009.994	18.43
1010.165	40.96
1010.337	-92.16
1010.508	34.82
1010.68	40.96
1010.851	-49.15
1011.022	-88.06
1011.194	53.25
1011.365	-65.54
1011.536	2.05
1011.708	8.19
1011.879	53.25
1012.05	96.25
1012.222	77.82
1012.393	98.3
1012.564	51.2
1012.735	57.34
1012.906	8.19
1013.078	20.48
1013.249	-34.82
1013.42	-6.14
1013.591	-12.29
1013.762	129.02
1013.934	98.3
1014.105	-36.86
1014.276	81.92
1014.447	-81.92
1014.618	112.64
1014.789	47.1
1014.96	24.58
1015.131	-26.62
1015.302	2.05
1015.473	-12.29
1015.644	-0
1015.815	-77.82
1015.986	-69.63
1016.157	47.1
1016.328	-67.58
1016.499	-47.1
1016.67	8.19
1016.841	40.96
1017.012	14.34
1017.183	-71.68
1017.354	30.72
1017.525	-34.82
1017.696	22.53
1017.867	-61.44
1018.037	71.68
1018.208	145.41
1018.379	-0
1018.55	90.11
1018.721	79.87
1018.891	55.3
1019.062	47.1
1019.233	47.1
1019.404	96.25
1019.574	-20.48
1019.745	-147.45
1019.916	28.67
1020.087	-4.1
1020.257	-116.73
1020.428	-100.35
1020.599	40.96
1020.769	-55.3
1020.94	-38.91
1021.11	77.82
1021.281	30.72
1021.452	45.06
1021.622	-14.34
1021.793	28.67
1021.963	38.91
1022.134	-59.39
1022.305	61.44
1022.475	-12.29
1022.646	165.89
1022.816	-26.62
1022.987	65.53
1023.157	57.34
1023.327	100.35
1023.498	18.43
1023.668	-2.05
1023.839	38.91
1024.009	-65.54
1024.18	63.49
1024.35	53.25
1024.52	124.93
1024.691	-86.01
1024.861	40.96
1025.031	86.01
1025.202	-59.39
1025.372	51.2
1025.542	-2.05
1025.713	112.64
1025.883	88.06
1026.053	18.43
1026.223	90.11
1026.394	14.34
1026.564	8.19
1026.734	-28.67
1026.904	-51.2
1027.074	-83.97
1027.245	-20.48
1027.415	-51.2
1027.585	38.91
1027.755	-30.72
1027.925	-49.15
1028.095	8.19
1028.265	77.82
1028.435	-38.91
1028.606	-10.24
1028.776	-10.24
1028.946	63.49
1029.116	4.1
1029.286	71.68
1029.456	88.06
1029.626	-73.73
1029.796	-26.62
1029.966	-8.19
1030.136	2.05
1030.306	-43.01
1030.475	77.82
1030.645	-30.72
1030.815	-10.24
1030.985	43.01
1031.155	53.25
1031.325	73.73
1031.495	-28.67
1031.665	61.44
1031.835	20.48
1032.004	-6.14
1032.174	-167.93
1032.344	26.62
1032.514	-6.14
1032.684	-14.34
1032.853	24.58
1033.023	4.1
1033.193	86.01
1033.362	-53.25
1033.532	126.97
1033.702	-69.63
1033.872	133.12
1034.041	34.82
1034.211	122.88
1034.381	-79.87
1034.55	-0
1034.72	18.43
1034.889	73.73
1035.059	-0
1035.229	20.48
1035.398	-28.67
1035.568	79.87
1035.737	-34.82
1035.907	-16.38
1036.076	18.43
1036.246	-51.2
1036.415	65.53
1036.585	26.62
1036.754	24.58
1036.924	-57.34
1037.093	32.77
1037.263	-8.19
1037.432	6.14
1037.601	-20.48
1037.771	-6.14
1037.94	51.2
1038.11	2.05
1038.279	-30.72
1038.448	-94.21
1038.618	-45.06
1038.787	-14.34
1038.956	-83.97
1039.126	10.24
1039.295	57.34
1039.464	16.38
1039.633	145.41
1039.803	-116.73
1039.972	73.73
1040.141	-36.86
1040.31	67.58
1040.479	36.86
1040.649	112.64
1040.818	-28.67
1040.987	-12.29
1041.156	98.3
1041.325	24.58
1041.494	-51.2
1041.663	24.58
1041.833	79.87
1042.002	51.2
1042.171	-10.24
1042.34	-98.3
1042.509	104.45
1042.678	-18.43
