Data from LSP52_S2_Subt2_15-13-04-066.txt Node
Date: Wed Aug 09 15:13:04 EDT 2023
User: Emmanuel
Spectrometer: USB4A00615
Scans to average: 1
Trigger mode: 1
Integration Time (sec): 4.000000E-3
Electric dark correction enabled: true
Boxcar width: 0
XAxis mode: Wavelengths
Number of Pixels in Spectrum: 3648
>>>>>Begin Spectral Data<<<<<
346.606	-44.71
346.818	-44.71
347.029	-44.71
347.241	22.87
347.452	102.74
347.664	20.82
347.876	-11.95
348.087	-3.75
348.299	-26.28
348.51	65.88
348.722	-38.57
348.933	-81.58
349.145	10.58
349.356	10.58
349.568	-18.09
349.779	37.2
349.991	35.16
350.202	-104.11
350.414	47.44
350.625	-91.82
350.836	-3.75
351.048	-28.33
351.259	-44.71
351.471	-7.85
351.682	112.98
351.893	8.53
352.105	-1.71
352.316	-50.86
352.527	-18.09
352.739	-177.83
352.95	65.88
353.161	-30.38
353.372	-11.95
353.584	-52.91
353.795	55.64
354.006	6.49
354.217	-85.67
354.429	10.58
354.64	-38.57
354.851	-24.23
355.062	-30.38
355.274	6.49
355.485	-71.34
355.696	-71.34
355.907	-69.29
356.118	-89.77
356.329	16.73
356.54	6.49
356.752	-20.14
356.963	78.16
357.174	72.02
357.385	-52.91
357.596	-3.75
357.807	29.01
358.018	-9.9
358.229	22.87
358.44	-63.15
358.651	74.07
358.862	12.63
359.073	0.34
359.284	-7.85
359.495	-48.81
359.706	-16.04
359.917	-3.75
360.128	14.68
360.339	-48.81
360.55	-34.47
360.761	33.11
360.972	-34.47
361.182	49.49
361.393	39.25
361.604	-50.86
361.815	-61.1
362.026	-24.23
362.237	74.07
362.447	-52.91
362.658	26.96
362.869	35.16
363.08	-3.75
363.291	-124.58
363.501	20.82
363.712	35.16
363.923	-54.95
364.134	45.4
364.344	-85.67
364.555	14.68
364.766	84.31
364.976	12.63
365.187	10.58
365.398	43.35
365.608	-50.86
365.819	-36.52
366.03	-20.14
366.24	123.22
366.451	-192.17
366.662	90.45
366.872	4.44
367.083	86.36
367.293	-48.81
367.504	72.02
367.714	31.06
367.925	-1.71
368.135	-38.57
368.346	18.77
368.557	-44.71
368.767	-18.09
368.977	72.02
369.188	-16.04
369.398	-36.52
369.609	31.06
369.819	-13.99
370.03	-3.75
370.24	43.35
370.451	45.4
370.661	-5.8
370.871	123.22
371.082	35.16
371.292	45.4
371.502	-24.23
371.713	-1.71
371.923	-61.1
372.133	8.53
372.344	-22.19
372.554	39.25
372.764	12.63
372.975	33.11
373.185	35.16
373.395	-26.28
373.605	31.06
373.816	-44.71
374.026	0.34
374.236	-59.05
374.446	35.16
374.656	-24.23
374.867	-85.67
375.077	45.4
375.287	92.5
375.497	96.6
375.707	-22.19
375.917	-54.95
376.127	-61.1
376.338	16.73
376.548	-28.33
376.758	-26.28
376.968	119.12
377.178	2.39
377.388	6.49
377.598	43.35
377.808	-48.81
378.018	145.75
378.228	8.53
378.438	6.49
378.648	10.58
378.858	102.74
379.068	-48.81
379.278	78.16
379.488	-16.04
379.698	-34.47
379.908	-36.52
380.118	-1.71
380.327	47.44
380.537	-112.3
380.747	4.44
380.957	-24.23
381.167	-102.06
381.377	63.83
381.587	143.7
381.796	47.44
382.006	6.49
382.216	-42.67
382.426	-26.28
382.636	2.39
382.845	-61.1
383.055	67.92
383.265	-3.75
383.475	45.4
383.684	-57
383.894	16.73
384.104	-81.58
384.313	41.3
384.523	-48.81
384.733	10.58
384.942	0.34
385.152	39.25
385.362	33.11
385.571	-48.81
385.781	12.63
385.991	-54.95
386.2	37.2
386.41	-48.81
386.619	26.96
386.829	78.16
387.038	-73.39
387.248	4.44
387.457	51.54
387.667	31.06
387.876	35.16
388.086	115.03
388.295	-73.39
388.505	12.63
388.714	-24.23
388.924	-46.76
389.133	-5.8
389.343	-83.63
389.552	-30.38
389.762	-69.29
389.971	-46.76
390.18	67.92
390.39	129.36
390.599	86.36
390.808	-18.09
391.018	37.2
391.227	117.08
391.436	33.11
391.646	72.02
391.855	53.59
392.064	-42.67
392.274	131.41
392.483	35.16
392.692	24.92
392.901	-11.95
393.111	39.25
393.32	69.97
393.529	143.7
393.738	20.82
393.947	10.58
394.157	96.6
394.366	65.88
394.575	14.68
394.784	-28.33
394.993	0.34
395.202	47.44
395.411	84.31
395.62	88.4
395.83	84.31
396.039	-32.43
396.248	8.53
396.457	2.39
396.666	-26.28
396.875	-75.43
397.084	55.64
397.293	20.82
397.502	-3.75
397.711	41.3
397.92	45.4
398.129	-32.43
398.338	84.31
398.547	-40.62
398.756	51.54
398.965	90.45
399.174	45.4
399.382	98.64
399.591	-65.19
399.8	37.2
400.009	76.12
400.218	72.02
400.427	37.2
400.636	24.92
400.844	53.59
401.053	127.32
401.262	-28.33
401.471	74.07
401.68	-18.09
401.888	94.55
402.097	102.74
402.306	-52.91
402.515	78.16
402.723	61.78
402.932	155.99
403.141	47.44
403.35	-73.39
403.558	-28.33
403.767	-1.71
403.976	-36.52
404.184	-9.9
404.393	119.12
404.602	47.44
404.81	26.96
405.019	26.96
405.227	24.92
405.436	47.44
405.645	24.92
405.853	-54.95
406.062	86.36
406.27	133.46
406.479	-73.39
406.687	-28.33
406.896	-44.71
407.104	72.02
407.313	20.82
407.521	69.97
407.73	133.46
407.938	82.26
408.147	47.44
408.355	16.73
408.563	117.08
408.772	20.82
408.98	84.31
409.189	106.84
409.397	55.64
409.605	-24.23
409.814	123.22
410.022	20.82
410.23	35.16
410.439	-7.85
410.647	45.4
410.855	-11.95
411.064	41.3
411.272	20.82
411.48	67.92
411.688	-50.86
411.897	8.53
412.105	57.68
412.313	2.39
412.521	-1.71
412.73	178.51
412.938	-69.29
413.146	-114.34
413.354	84.31
413.562	45.4
413.77	115.03
413.979	137.56
414.187	117.08
414.395	-61.1
414.603	10.58
414.811	39.25
415.019	231.76
415.227	90.45
415.435	26.96
415.643	176.47
415.851	139.6
416.059	43.35
416.267	438.61
416.475	850.25
416.683	510.29
416.891	143.7
417.099	479.57
417.307	799.05
417.515	237.91
417.723	170.32
417.931	479.57
418.139	362.83
418.347	33.11
418.555	176.47
418.763	518.48
418.971	186.71
419.179	12.63
419.386	219.47
419.594	491.85
419.802	217.43
420.01	293.2
420.218	1265.99
420.426	1577.28
420.633	653.64
420.841	1460.54
421.049	1175.88
421.257	717.13
421.464	260.43
421.672	883.02
421.88	549.2
422.088	233.81
422.295	211.28
422.503	309.58
422.711	231.76
422.918	92.5
423.126	96.6
423.334	194.9
423.541	41.3
423.749	-7.85
423.956	61.78
424.164	254.29
424.372	86.36
424.579	31.06
424.787	244.05
424.994	215.38
425.202	22.87
425.409	-3.75
425.617	285.01
425.824	86.36
426.032	22.87
426.239	237.91
426.447	565.58
426.654	366.93
426.862	78.16
427.069	661.84
427.277	797
427.484	547.15
427.692	328.02
427.899	438.61
428.106	788.81
428.314	213.33
428.521	297.3
428.728	444.75
428.936	356.69
429.143	180.56
429.351	176.47
429.558	434.51
429.765	514.38
429.972	172.37
430.18	100.69
430.387	758.09
430.594	315.73
430.801	115.03
431.009	239.95
431.216	280.91
431.423	174.42
431.63	39.25
431.838	158.03
432.045	168.27
432.252	186.71
432.459	72.02
432.666	205.14
432.873	475.47
433.081	256.34
433.288	209.23
433.495	280.91
433.702	844.1
433.909	360.78
434.116	352.59
434.323	629.07
434.53	891.21
434.737	647.5
434.944	522.57
435.151	819.53
435.358	504.14
435.565	205.14
435.772	84.31
435.979	282.96
436.186	520.53
436.393	86.36
436.6	250.19
436.807	356.69
437.014	584.01
437.221	260.43
437.428	295.25
437.635	553.29
437.841	616.78
438.048	285.01
438.255	127.32
438.462	289.1
438.669	604.49
438.876	229.71
439.082	254.29
439.289	389.46
439.496	549.2
439.703	164.18
439.91	184.66
440.116	743.75
440.323	768.33
440.53	203.09
440.737	360.78
440.943	762.19
441.15	878.92
441.357	264.53
441.563	291.15
441.77	287.06
441.977	1053
442.183	330.06
442.39	356.69
442.597	743.75
442.803	1046.85
443.01	684.36
443.216	244.05
443.423	624.97
443.63	952.65
443.836	616.78
444.043	491.85
444.249	502.09
444.456	1163.59
444.662	731.47
444.869	258.39
445.075	475.47
445.282	995.65
445.488	635.21
445.695	530.77
445.901	231.76
446.107	1104.2
446.314	739.66
446.52	725.32
446.727	436.56
446.933	815.43
447.139	708.94
447.346	639.31
447.552	424.27
447.759	936.26
447.965	780.62
448.171	751.95
448.378	512.33
448.584	805.19
448.79	1184.07
448.996	799.05
449.203	538.96
449.409	739.66
449.615	758.09
449.821	686.41
450.028	454.99
450.234	563.53
450.44	905.54
450.646	905.54
450.852	581.96
451.059	461.13
451.265	792.91
451.471	1155.4
451.677	874.82
451.883	491.85
452.089	600.4
452.295	1044.81
452.502	573.77
452.708	745.8
452.914	418.13
453.12	1268.03
453.326	610.64
453.532	710.99
453.738	340.3
453.944	639.31
454.15	649.55
454.356	844.1
454.562	323.92
454.768	639.31
454.974	508.24
455.18	780.62
455.386	420.17
455.592	473.42
455.798	467.28
456.003	684.36
456.209	434.51
456.415	264.53
456.621	426.32
456.827	624.97
457.033	229.71
457.239	303.44
457.444	102.74
457.65	506.19
457.856	221.52
458.062	461.13
458.268	112.98
458.473	356.69
458.679	373.07
458.885	624.97
459.091	225.62
459.296	487.76
459.502	237.91
459.708	622.92
459.914	80.21
460.119	401.74
460.325	135.51
460.531	352.59
460.736	414.03
460.942	219.47
461.147	127.32
461.353	198.99
461.559	278.87
461.764	366.93
461.97	166.23
462.175	203.09
462.381	342.35
462.587	336.21
462.792	-124.58
462.998	201.04
463.203	182.61
463.409	559.44
463.614	399.7
463.82	379.22
464.025	172.37
464.231	411.98
464.436	268.63
464.641	80.21
464.847	174.42
465.052	264.53
465.258	190.8
465.463	489.81
465.669	375.12
465.874	260.43
466.079	205.14
466.285	342.35
466.49	192.85
466.695	264.53
466.901	205.14
467.106	317.78
467.311	174.42
467.516	250.19
467.722	244.05
467.927	452.94
468.132	192.85
468.338	315.73
468.543	291.15
468.748	102.74
468.953	106.84
469.158	508.24
469.364	289.1
469.569	268.63
469.774	147.8
469.979	491.85
470.184	352.59
470.389	534.86
470.594	274.77
470.8	346.45
471.005	219.47
471.21	706.89
471.415	287.06
471.62	297.3
471.825	344.4
472.03	498
472.235	469.33
472.44	495.95
472.645	420.17
472.85	411.98
473.055	553.29
473.26	731.47
473.465	272.72
473.67	477.52
473.875	334.16
474.08	653.64
474.285	446.8
474.49	604.49
474.695	287.06
474.899	491.85
475.104	555.34
475.309	944.45
475.514	373.07
475.719	663.88
475.924	477.52
476.128	536.91
476.333	719.18
476.538	985.41
476.743	356.69
476.948	473.42
477.152	686.41
477.357	975.17
477.562	633.16
477.767	756.04
477.971	516.43
478.176	803.15
478.381	565.58
478.585	934.22
478.79	321.87
478.995	704.84
479.199	819.53
479.404	899.4
479.609	774.47
479.813	911.69
480.018	610.64
480.223	1100.1
480.427	1403.2
480.632	1220.93
480.836	549.2
481.041	1108.29
481.245	973.13
481.45	954.69
481.654	1003.85
481.859	1020.23
482.063	670.03
482.268	1079.62
482.472	1134.92
482.677	1268.03
482.881	1192.26
483.086	969.03
483.29	635.21
483.495	1163.59
483.699	1481.02
483.903	1509.69
484.108	1413.44
484.312	1438.02
484.517	1102.15
484.721	1474.88
484.925	1399.1
485.13	1411.39
485.334	758.09
485.538	1100.1
485.743	1050.95
485.947	1288.51
486.151	1532.22
486.355	1302.85
486.56	1055.05
486.764	1429.82
486.968	1308.99
487.172	1384.77
487.377	1491.26
487.581	1546.56
487.785	969.03
487.989	1546.56
488.193	1542.46
488.397	1730.87
488.602	1454.4
488.806	1329.47
489.01	1171.78
489.214	1554.75
489.418	1614.14
489.622	1546.56
489.826	1157.44
490.03	1333.57
490.234	1239.36
490.438	1616.19
490.642	1495.36
490.846	1341.76
491.05	797
491.254	1061.19
491.458	1165.64
491.662	1806.65
491.866	1546.56
492.07	1265.99
492.274	817.48
492.478	1354.05
492.682	1122.63
492.886	1657.15
493.09	1501.5
493.294	1171.78
493.498	885.06
493.701	1438.02
493.905	1233.22
494.109	1786.17
494.313	1263.94
494.517	1241.41
494.721	1112.39
494.924	1378.62
495.128	1110.34
495.332	1550.65
495.536	1278.27
495.739	1280.32
495.943	1036.61
496.147	1413.44
496.351	995.65
496.554	1743.16
496.758	1220.93
496.962	1065.29
497.165	788.81
497.369	1112.39
497.573	1313.09
497.776	1870.14
497.98	1294.66
498.184	1003.85
498.387	1089.86
498.591	1114.44
498.794	1186.12
498.998	1671.48
499.202	790.86
499.405	1118.53
499.609	719.18
499.812	1161.54
500.016	1255.75
500.219	1687.87
500.423	1046.85
500.626	1048.9
500.83	1069.38
501.033	1179.97
501.237	815.43
501.44	1421.63
501.643	942.41
501.847	1229.12
502.05	934.22
502.254	895.3
502.457	1046.85
502.66	1472.83
502.864	862.54
503.067	1120.58
503.271	825.67
503.474	680.27
503.677	1081.67
503.88	1241.41
504.084	899.4
504.287	1014.09
504.49	993.61
504.694	1200.45
504.897	1431.87
505.1	1456.45
505.303	1145.16
505.507	1360.19
505.71	866.63
505.913	950.6
506.116	729.42
506.319	1182.02
506.522	1354.05
506.726	1167.68
506.929	854.34
507.132	1247.55
507.335	592.2
507.538	665.93
507.741	866.63
507.944	885.06
508.147	866.63
508.35	1360.19
508.553	766.28
508.756	807.24
508.959	747.85
509.163	1026.37
509.366	721.23
509.569	1349.95
509.771	584.01
509.974	1079.62
510.177	811.34
510.38	751.95
510.583	993.61
510.786	1096
510.989	989.51
511.192	1155.4
511.395	538.96
511.598	860.49
511.801	708.94
512.004	1098.05
512.206	821.58
512.409	1315.14
512.612	885.06
512.815	1032.52
513.018	737.61
513.22	1020.23
513.423	919.88
513.626	1167.68
513.829	739.66
514.032	1331.52
514.234	1059.14
514.437	1024.33
514.64	1075.52
514.842	1175.88
515.045	1182.02
515.248	1237.31
515.45	848.2
515.653	1259.84
515.856	989.51
516.058	983.37
516.261	1337.66
516.464	979.27
516.666	938.31
516.869	1618.24
517.071	1050.95
517.274	1245.51
517.477	876.87
517.679	1280.32
517.882	1222.98
518.084	1503.55
518.287	1235.27
518.489	1890.62
518.692	1188.16
518.894	1335.62
519.097	1360.19
519.299	1112.39
519.501	1397.06
519.704	1567.04
519.906	1374.53
520.109	1755.45
520.311	733.51
520.514	1397.06
520.716	1220.93
520.918	1263.94
521.121	1274.18
521.323	1628.48
521.525	1118.53
521.728	1626.43
521.93	932.17
522.132	1286.47
522.335	1421.63
522.537	1622.33
522.739	1188.16
522.941	1718.59
523.144	1104.2
523.346	1345.86
523.548	1009.99
523.75	1306.95
523.952	1259.84
524.155	1384.77
524.357	1009.99
524.559	1704.25
524.761	952.65
524.963	1454.4
525.165	1102.15
525.368	1419.58
525.57	1276.23
525.772	1329.47
525.974	1212.74
526.176	1524.03
526.378	932.17
526.58	1407.3
526.782	1040.71
526.984	1433.92
527.186	850.25
527.388	995.65
527.59	944.45
527.792	1460.54
527.994	919.88
528.196	1446.21
528.398	962.89
528.6	1091.91
528.802	723.27
529.004	1108.29
529.206	870.73
529.408	1411.39
529.609	940.36
529.811	1651
530.013	780.62
530.215	1053
530.417	921.93
530.619	887.11
530.821	928.07
531.022	958.79
531.224	667.98
531.426	1569.09
531.628	717.13
531.829	1282.37
532.031	956.74
532.233	682.31
532.435	674.12
532.636	704.84
532.838	866.63
533.04	977.22
533.241	627.02
533.443	1188.16
533.645	993.61
533.846	840.01
534.048	817.48
534.25	753.99
534.451	508.24
534.653	659.79
534.855	606.54
535.056	969.03
535.258	495.95
535.459	1130.82
535.661	545.1
535.862	700.75
536.064	551.24
536.265	622.92
536.467	510.29
536.668	604.49
536.87	518.48
537.071	792.91
537.273	715.08
537.474	745.8
537.676	833.86
537.877	741.71
538.078	418.13
538.28	575.82
538.481	364.88
538.683	684.36
538.884	198.99
539.085	876.87
539.287	651.6
539.488	751.95
539.689	346.45
539.891	837.96
540.092	450.89
540.293	522.57
540.495	498
540.696	549.2
540.897	407.89
541.098	581.96
541.3	557.39
541.501	575.82
541.702	692.55
541.903	725.32
542.104	579.92
542.306	567.63
542.507	420.17
542.708	772.43
542.909	268.63
543.11	717.13
543.311	301.39
543.512	461.13
543.713	586.06
543.915	688.46
544.116	547.15
544.317	909.64
544.518	463.18
544.719	622.92
544.92	313.68
545.121	426.32
545.322	440.65
545.523	498
545.724	571.72
545.925	454.99
546.126	477.52
546.327	1040.71
546.528	651.6
546.729	735.56
546.929	520.53
547.13	868.68
547.331	473.42
547.532	594.25
547.733	510.29
547.934	547.15
548.135	424.27
548.336	983.37
548.536	504.14
548.737	1061.19
548.938	751.95
549.139	1003.85
549.34	530.77
549.54	956.74
549.741	811.34
549.942	659.79
550.143	125.27
550.343	915.78
550.544	536.91
550.745	1079.62
550.945	549.2
551.146	797
551.347	684.36
551.547	797
551.748	758.09
551.949	1077.57
552.149	1141.06
552.35	784.71
552.551	991.56
552.751	1065.29
552.952	403.79
553.152	989.51
553.353	629.07
553.553	1020.23
553.754	907.59
553.954	842.06
554.155	704.84
554.356	1145.16
554.556	973.13
554.756	1026.37
554.957	1136.96
555.157	1372.48
555.358	897.35
555.558	1452.35
555.759	977.22
555.959	923.98
556.159	942.41
556.36	1192.26
556.56	813.38
556.761	1239.36
556.961	1087.81
557.161	1024.33
557.362	1184.07
557.562	1462.59
557.762	768.33
557.963	1681.72
558.163	993.61
558.363	1153.35
558.563	1440.06
558.764	1149.25
558.964	1055.05
559.164	1294.66
559.364	1296.71
559.565	1153.35
559.765	1419.58
559.965	1151.3
560.165	1065.29
560.365	1571.13
560.565	860.49
560.766	1665.34
560.966	1296.71
561.166	821.58
561.366	1321.28
561.566	1448.26
561.766	829.77
561.966	1403.2
562.166	1272.13
562.366	1331.52
562.566	1331.52
562.766	1333.57
562.966	876.87
563.166	1618.24
563.366	964.93
563.566	1327.43
563.766	1284.42
563.966	1143.11
564.166	1349.95
564.366	1214.79
564.566	1231.17
564.766	1620.28
564.966	1005.89
565.166	1341.76
565.366	1126.72
565.565	1335.62
565.765	694.6
565.965	1257.79
566.165	700.75
566.365	1513.79
566.565	1190.21
566.764	893.26
566.964	1149.25
567.164	1091.91
567.364	891.21
567.564	1423.68
567.763	1044.81
567.963	874.82
568.163	1220.93
568.362	1198.4
568.562	973.13
568.762	1470.78
568.961	698.7
569.161	1372.48
569.361	766.28
569.56	1063.24
569.76	1077.57
569.96	958.79
570.159	880.97
570.359	1081.67
570.558	811.34
570.758	1292.61
570.958	633.16
571.157	1009.99
571.357	1188.16
571.556	831.82
571.756	753.99
571.955	1321.28
572.155	352.59
572.354	1352
572.554	667.98
572.753	676.17
572.953	1100.1
573.152	727.37
573.351	557.39
573.551	1261.89
573.75	528.72
573.95	997.7
574.149	424.27
574.348	790.86
574.548	819.53
574.747	741.71
574.946	743.75
575.146	1239.36
575.345	432.46
575.544	995.65
575.744	704.84
575.943	780.62
576.142	1102.15
576.342	747.85
576.541	969.03
576.74	799.05
576.939	792.91
577.138	950.6
577.338	667.98
577.537	815.43
577.736	606.54
577.935	665.93
578.134	450.89
578.333	772.43
578.533	598.35
578.732	840.01
578.931	348.5
579.13	1007.94
579.329	389.46
579.528	631.12
579.727	719.18
579.926	426.32
580.125	743.75
580.324	588.11
580.523	622.92
580.722	561.48
580.921	383.31
581.12	835.91
581.319	426.32
581.518	624.97
581.717	463.18
581.916	416.08
582.115	473.42
582.314	655.69
582.513	258.39
582.712	667.98
582.911	282.96
583.109	684.36
583.308	274.77
583.507	485.71
583.706	577.87
583.905	414.03
584.104	659.79
584.302	297.3
584.501	305.49
584.7	510.29
584.899	231.76
585.098	624.97
585.296	356.69
585.495	571.72
585.694	362.83
585.892	436.56
586.091	270.67
586.29	465.23
586.488	307.54
586.687	665.93
586.886	209.23
587.084	713.03
587.283	184.66
587.482	444.75
587.68	356.69
587.879	629.07
588.077	397.65
588.276	231.76
588.475	436.56
588.673	373.07
588.872	409.94
589.07	452.94
589.269	295.25
589.467	762.19
589.666	264.53
589.864	602.44
590.063	248.15
590.261	500.05
590.46	440.65
590.658	434.51
590.857	358.74
591.055	452.94
591.253	385.36
591.452	571.72
591.65	389.46
591.848	432.46
592.047	147.8
592.245	467.28
592.444	223.57
592.642	151.89
592.84	504.14
593.038	366.93
593.237	385.36
593.435	323.92
593.633	555.34
593.832	291.15
594.03	567.63
594.228	452.94
594.426	242
594.624	495.95
594.823	137.56
595.021	434.51
595.219	201.04
595.417	371.02
595.615	229.71
595.813	342.35
596.012	176.47
596.21	354.64
596.408	280.91
596.606	309.58
596.804	151.89
597.002	289.1
597.2	117.08
597.398	473.42
597.596	102.74
597.794	377.17
597.992	78.16
598.19	332.11
598.388	227.67
598.586	280.91
598.784	198.99
598.982	227.67
599.18	383.31
599.378	137.56
599.576	221.52
599.774	209.23
599.972	196.95
600.17	282.96
600.368	198.99
600.565	375.12
600.763	166.23
600.961	293.2
601.159	223.57
601.357	194.9
601.555	325.97
601.752	463.18
601.95	233.81
602.148	141.65
602.346	352.59
602.544	504.14
602.741	274.77
602.939	379.22
603.137	166.23
603.334	266.58
603.532	209.23
603.73	514.38
603.927	366.93
604.125	264.53
604.323	90.45
604.52	510.29
604.718	135.51
604.916	526.67
605.113	69.97
605.311	442.7
605.508	272.72
605.706	405.84
605.904	227.67
606.101	209.23
606.299	125.27
606.496	219.47
606.694	215.38
606.891	399.7
607.089	176.47
607.286	147.8
607.484	299.34
607.681	94.55
607.879	401.74
608.076	90.45
608.273	158.03
608.471	213.33
608.668	129.36
608.866	96.6
609.063	100.69
609.26	153.94
609.458	67.92
609.655	409.94
609.852	176.47
610.05	307.54
610.247	188.75
610.444	338.26
610.642	223.57
610.839	213.33
611.036	190.8
611.233	155.99
611.431	121.17
611.628	184.66
611.825	104.79
612.022	127.32
612.22	186.71
612.417	151.89
612.614	94.55
612.811	209.23
613.008	231.76
613.205	172.37
613.402	129.36
613.6	313.68
613.797	170.32
613.994	155.99
614.191	221.52
614.388	149.84
614.585	78.16
614.782	239.95
614.979	149.84
615.176	76.12
615.373	47.44
615.57	133.46
615.767	86.36
615.964	201.04
616.161	-38.57
616.358	231.76
616.555	-3.75
616.752	221.52
616.949	158.03
617.146	155.99
617.343	78.16
617.539	125.27
617.736	98.64
617.933	145.75
618.13	37.2
618.327	330.06
618.524	20.82
618.721	22.87
618.917	100.69
619.114	182.61
619.311	84.31
619.508	127.32
619.704	182.61
619.901	112.98
620.098	63.83
620.295	158.03
620.491	80.21
620.688	57.68
620.885	178.51
621.081	129.36
621.278	53.59
621.475	190.8
621.671	94.55
621.868	147.8
622.065	35.16
622.261	198.99
622.458	39.25
622.655	186.71
622.851	-9.9
623.048	135.51
623.244	-7.85
623.441	192.85
623.637	203.09
623.834	45.4
624.03	-18.09
624.227	96.6
624.423	90.45
624.62	125.27
624.816	108.88
625.013	217.43
625.209	18.77
625.406	74.07
625.602	39.25
625.798	196.95
625.995	18.77
626.191	153.94
626.388	78.16
626.584	104.79
626.78	-20.14
626.977	100.69
627.173	-63.15
627.369	196.95
627.566	106.84
627.762	110.93
627.958	110.93
628.154	74.07
628.351	31.06
628.547	149.84
628.743	61.78
628.939	233.81
629.136	67.92
629.332	166.23
629.528	133.46
629.724	133.46
629.92	110.93
630.116	106.84
630.313	74.07
630.509	20.82
630.705	201.04
630.901	176.47
631.097	90.45
631.293	-40.62
631.489	69.97
631.685	67.92
631.881	170.32
632.077	53.59
632.273	6.49
632.469	98.64
632.665	131.41
632.861	24.92
633.057	115.03
633.253	84.31
633.449	-40.62
633.645	8.53
633.841	149.84
634.037	162.13
634.233	41.3
634.429	198.99
634.625	61.78
634.821	155.99
635.017	135.51
635.212	6.49
635.408	45.4
635.604	65.88
635.8	125.27
635.996	82.26
636.191	100.69
636.387	129.36
636.583	84.31
636.779	-1.71
636.975	110.93
637.17	106.84
637.366	98.64
637.562	39.25
637.757	-5.8
637.953	-26.28
638.149	43.35
638.345	117.08
638.54	98.64
638.736	8.53
638.931	18.77
639.127	110.93
639.323	86.36
639.518	51.54
639.714	-26.28
639.909	115.03
640.105	125.27
640.301	51.54
640.496	2.39
640.692	201.04
640.887	6.49
641.083	65.88
641.278	59.73
641.474	72.02
641.669	-44.71
641.865	92.5
642.06	106.84
642.256	2.39
642.451	-1.71
642.646	63.83
642.842	29.01
643.037	115.03
643.233	43.35
643.428	137.56
643.623	47.44
643.819	-50.86
644.014	61.78
644.209	-1.71
644.405	-50.86
644.6	135.51
644.795	67.92
644.99	2.39
645.186	155.99
645.381	33.11
645.576	-11.95
645.771	43.35
645.967	-24.23
646.162	-13.99
646.357	-7.85
646.552	94.55
646.747	-3.75
646.943	8.53
647.138	29.01
647.333	80.21
647.528	-296.61
647.723	69.97
647.918	-7.85
648.113	41.3
648.308	63.83
648.504	-44.71
648.699	-3.75
648.894	0.34
649.089	33.11
649.284	-73.39
649.479	59.73
649.674	-50.86
649.869	10.58
650.064	-110.25
650.259	67.92
650.454	57.68
650.649	88.4
650.844	-32.43
651.038	76.12
651.233	0.34
651.428	8.53
651.623	6.49
651.818	74.07
652.013	16.73
652.208	2.39
652.403	88.4
652.597	0.34
652.792	-75.43
652.987	194.9
653.182	39.25
653.377	78.16
653.571	45.4
653.766	-50.86
653.961	-71.34
654.156	74.07
654.35	2.39
654.545	-3.75
654.74	31.06
654.935	90.45
655.129	67.92
655.324	-20.14
655.519	33.11
655.713	-24.23
655.908	-69.29
656.102	57.68
656.297	37.2
656.492	47.44
656.686	24.92
656.881	45.4
657.075	-20.14
657.27	49.49
657.464	-22.19
657.659	59.73
657.854	-73.39
658.048	33.11
658.243	55.64
658.437	18.77
658.631	-71.34
658.826	92.5
659.02	12.63
659.215	49.49
659.409	-16.04
659.604	-75.43
659.798	12.63
659.992	24.92
660.187	4.44
660.381	29.01
660.576	-108.2
660.77	88.4
660.964	-1.71
661.159	112.98
661.353	90.45
661.547	-11.95
661.742	94.55
661.936	-18.09
662.13	20.82
662.324	80.21
662.519	69.97
662.713	45.4
662.907	-54.95
663.101	100.69
663.295	63.83
663.49	-67.24
663.684	26.96
663.878	-57
664.072	-28.33
664.266	100.69
664.46	-44.71
664.654	2.39
664.849	-40.62
665.043	-48.81
665.237	39.25
665.431	-26.28
665.625	-57
665.819	-40.62
666.013	49.49
666.207	-22.19
666.401	121.17
666.595	47.44
666.789	0.34
666.983	-52.91
667.177	12.63
667.371	31.06
667.565	104.79
667.759	-48.81
667.953	-52.91
668.147	20.82
668.34	29.01
668.534	12.63
668.728	-32.43
668.922	-48.81
669.116	39.25
669.31	55.64
669.504	-54.95
669.697	12.63
669.891	-75.43
670.085	61.78
670.279	96.6
670.473	72.02
670.666	55.64
670.86	31.06
671.054	63.83
671.248	35.16
671.441	12.63
671.635	158.03
671.829	-65.19
672.022	-34.47
672.216	18.77
672.41	10.58
672.603	-16.04
672.797	26.96
672.99	94.55
673.184	53.59
673.378	29.01
673.571	108.88
673.765	90.45
673.958	74.07
674.152	-3.75
674.345	59.73
674.539	51.54
674.733	4.44
674.926	61.78
675.12	-1.71
675.313	4.44
675.506	-11.95
675.7	18.77
675.893	69.97
676.087	43.35
676.28	55.64
676.474	133.46
676.667	43.35
676.86	-165.54
677.054	51.54
677.247	-11.95
677.441	55.64
677.634	-63.15
677.827	-46.76
678.02	78.16
678.214	55.64
678.407	-61.1
678.6	22.87
678.794	33.11
678.987	45.4
679.18	-95.91
679.373	16.73
679.567	92.5
679.76	-22.19
679.953	-67.24
680.146	4.44
680.339	8.53
680.533	72.02
680.726	37.2
680.919	63.83
681.112	-22.19
681.305	-26.28
681.498	-13.99
681.691	-24.23
681.884	84.31
682.077	86.36
682.271	-116.39
682.464	35.16
682.657	47.44
682.85	-24.23
683.043	12.63
683.236	35.16
683.429	41.3
683.622	-83.63
683.815	-77.48
684.008	-24.23
684.201	-50.86
684.393	41.3
684.586	-32.43
684.779	-34.47
684.972	29.01
685.165	-3.75
685.358	-87.72
685.551	82.26
685.744	74.07
685.937	-24.23
686.129	-34.47
686.322	26.96
686.515	8.53
686.708	-106.15
686.901	-59.05
687.093	24.92
687.286	51.54
687.479	-30.38
687.672	-34.47
687.864	-13.99
688.057	63.83
688.25	-73.39
688.442	35.16
688.635	-95.91
688.828	-91.82
689.02	-16.04
689.213	-38.57
689.406	-36.52
689.598	-65.19
689.791	69.97
689.984	67.92
690.176	-22.19
690.369	-93.87
690.561	-54.95
690.754	-52.91
690.946	74.07
691.139	-7.85
691.331	14.68
691.524	-59.05
691.716	55.64
691.909	-54.95
692.101	-24.23
692.294	4.44
692.486	2.39
692.679	94.55
692.871	-67.24
693.063	43.35
693.256	8.53
693.448	-7.85
693.641	84.31
693.833	6.49
694.025	51.54
694.218	170.32
694.41	207.19
694.602	1448.26
694.795	4899.08
694.987	9517.25
695.179	13723.78
695.372	11837.6
695.564	9486.53
695.756	7864.54
695.948	5417.22
696.14	4020.5
696.333	2081.08
696.525	1276.23
696.717	321.87
696.909	2.39
697.101	164.18
697.294	6.49
697.486	29.01
697.678	51.54
697.87	39.25
698.062	-91.82
698.254	-9.9
698.446	-1.71
698.638	20.82
698.83	55.64
699.022	39.25
699.215	-83.63
699.407	127.32
699.599	-91.82
699.791	74.07
699.983	78.16
700.175	12.63
700.367	33.11
700.558	18.77
700.75	61.78
700.942	102.74
701.134	-3.75
701.326	72.02
701.518	-83.63
701.71	65.88
701.902	22.87
702.094	84.31
702.286	-153.26
702.477	94.55
702.669	86.36
702.861	-9.9
703.053	74.07
703.245	-24.23
703.436	76.12
703.628	78.16
703.82	33.11
704.012	90.45
704.203	-26.28
704.395	55.64
704.587	385.36
704.779	928.07
704.97	4540.69
705.162	8911.05
705.354	10123.45
705.545	10303.67
705.737	8509.65
705.929	6121.72
706.12	4782.35
706.312	2791.72
706.503	1737.02
706.695	592.2
706.887	379.22
707.078	-38.57
707.27	22.87
707.461	-11.95
707.653	20.82
707.844	26.96
708.036	29.01
708.227	82.26
708.419	-118.44
708.61	-89.77
708.802	106.84
708.993	20.82
709.185	24.92
709.376	-5.8
709.567	-9.9
709.759	61.78
709.95	49.49
710.141	37.2
710.333	-30.38
710.524	33.11
710.716	-102.06
710.907	-63.15
711.098	-26.28
711.289	88.4
711.481	51.54
711.672	6.49
711.863	20.82
712.055	47.44
712.246	-7.85
712.437	-16.04
712.628	-28.33
712.82	-110.25
713.011	24.92
713.202	117.08
713.393	31.06
713.584	16.73
713.775	-50.86
713.967	35.16
714.158	39.25
714.349	-77.48
714.54	-57
714.731	49.49
714.922	53.59
715.113	119.12
715.304	47.44
715.495	-20.14
715.686	49.49
715.877	33.11
716.068	41.3
716.259	-3.75
716.45	-28.33
716.641	49.49
716.832	24.92
717.023	119.12
717.214	-7.85
717.405	-3.75
717.596	121.17
717.787	4.44
717.978	10.58
718.169	-16.04
718.36	-1.71
718.55	80.21
718.741	-73.39
718.932	69.97
719.123	53.59
719.314	-38.57
719.505	-48.81
719.695	51.54
719.886	29.01
720.077	-95.91
720.268	-42.67
720.458	82.26
720.649	55.64
720.84	59.73
721.031	-52.91
721.221	-11.95
721.412	69.97
721.603	37.2
721.793	0.34
721.984	-59.05
722.175	41.3
722.365	2.39
722.556	39.25
722.746	-34.47
722.937	-26.28
723.128	45.4
723.318	37.2
723.509	26.96
723.699	-61.1
723.89	115.03
724.08	14.68
724.271	106.84
724.461	4.44
724.652	-7.85
724.842	-7.85
725.033	106.84
725.223	24.92
725.414	0.34
725.604	-13.99
725.794	164.18
725.985	567.63
726.175	436.56
726.366	373.07
726.556	94.55
726.746	67.92
726.937	49.49
727.127	-16.04
727.317	-7.85
727.508	-52.91
727.698	-83.63
727.888	-46.76
728.079	51.54
728.269	-97.96
728.459	-52.91
728.649	-67.24
728.84	-65.19
729.03	37.2
729.22	-69.29
729.41	53.59
729.6	198.99
729.791	-114.34
729.981	-136.87
730.171	-7.85
730.361	-3.75
730.551	12.63
730.741	31.06
730.931	39.25
731.121	45.4
731.311	67.92
731.502	4.44
731.692	33.11
731.882	-18.09
732.072	-52.91
732.262	-24.23
732.452	-97.96
732.642	65.88
732.832	-81.58
733.022	-61.1
733.212	35.16
733.402	-63.15
733.591	-20.14
733.781	39.25
733.971	43.35
734.161	-7.85
734.351	59.73
734.541	80.21
734.731	45.4
734.921	-48.81
735.111	-5.8
735.3	16.73
735.49	18.77
735.68	53.59
735.87	4.44
736.06	94.55
736.249	874.82
736.439	2128.18
736.629	6312.18
736.819	10965.17
737.008	16050.27
737.198	17184.85
737.388	13056.14
737.577	11483.3
737.767	8935.63
737.957	6349.04
738.146	5046.54
738.336	2969.9
738.526	2165.04
738.715	915.78
738.905	225.62
739.094	203.09
739.284	186.71
739.474	-71.34
739.663	112.98
739.853	16.73
740.042	24.92
740.232	110.93
740.421	112.98
740.611	-24.23
740.8	115.03
740.99	98.64
741.179	-32.43
741.369	-69.29
741.558	90.45
741.748	-28.33
741.937	49.49
742.126	53.59
742.316	-63.15
742.505	76.12
742.695	84.31
742.884	-34.47
743.073	78.16
743.263	24.92
743.452	-11.95
743.641	139.6
743.831	-48.81
744.02	24.92
744.209	125.27
744.398	102.74
744.588	-24.23
744.777	-130.73
744.966	-83.63
745.155	26.96
745.345	0.34
745.534	106.84
745.723	139.6
745.912	47.44
746.101	26.96
746.29	10.58
746.48	74.07
746.669	33.11
746.858	8.53
747.047	-42.67
747.236	-153.26
747.425	18.77
747.614	-9.9
747.803	133.46
747.992	37.2
748.181	198.99
748.37	610.64
748.559	1102.15
748.748	4315.41
748.937	7739.62
749.126	10186.94
749.315	11839.65
749.504	12009.63
749.693	11135.15
749.882	14297.21
750.071	16619.61
750.26	16781.4
750.449	16427.1
750.638	13428.87
750.826	10629.3
751.015	8988.88
751.204	6461.68
751.393	4901.13
751.582	3391.78
751.771	2054.45
751.959	854.34
752.148	729.42
752.337	301.39
752.526	229.71
752.714	119.12
752.903	43.35
753.092	92.5
753.281	6.49
753.469	-5.8
753.658	43.35
753.847	47.44
754.035	-42.67
754.224	-11.95
754.413	-30.38
754.601	18.77
754.79	121.17
754.979	-11.95
755.167	-40.62
755.356	45.4
755.544	0.34
755.733	45.4
755.921	41.3
756.11	35.16
756.298	-71.34
756.487	-32.43
756.675	49.49
756.864	37.2
757.052	12.63
757.241	0.34
757.429	20.82
757.618	16.73
757.806	69.97
757.995	4.44
758.183	-42.67
758.371	-59.05
758.56	-24.23
758.748	-3.75
758.937	-63.15
759.125	67.92
759.313	-24.23
759.502	33.11
759.69	-57
759.878	-83.63
760.066	-28.33
760.255	90.45
760.443	104.79
760.631	92.5
760.819	176.47
761.008	411.98
761.196	889.16
761.384	1827.13
761.572	4747.53
761.761	7086.31
761.949	13414.54
762.137	22736.89
762.325	25993.16
762.513	25716.68
762.701	25280.47
762.889	19738.66
763.077	16142.43
763.266	13371.53
763.454	9849.02
763.642	7246.05
763.83	5738.75
764.018	3412.26
764.206	2492.72
764.394	1573.18
764.582	950.6
764.77	426.32
764.958	483.66
765.146	135.51
765.334	35.16
765.522	39.25
765.71	14.68
765.898	-20.14
766.085	145.75
766.273	59.73
766.461	53.59
766.649	18.77
766.837	16.73
767.025	-7.85
767.213	12.63
767.401	80.21
767.588	-28.33
767.776	57.68
767.964	-16.04
768.152	24.92
768.339	20.82
768.527	-132.78
768.715	-71.34
768.903	8.53
769.09	-30.38
769.278	117.08
769.466	18.77
769.654	-3.75
769.841	47.44
770.029	-11.95
770.217	80.21
770.404	-48.81
770.592	637.26
770.779	2734.38
770.967	6666.48
771.155	11331.75
771.342	13672.58
771.53	10526.9
771.717	9541.83
771.905	7704.8
772.092	5417.22
772.28	3389.73
772.467	2715.95
772.655	905.54
772.842	375.12
773.03	301.39
773.217	74.07
773.405	8.53
773.592	92.5
773.78	-40.62
773.967	-30.38
774.154	49.49
774.342	47.44
774.529	72.02
774.717	-104.11
774.904	-65.19
775.091	-30.38
775.279	205.14
775.466	57.68
775.653	-30.38
775.841	-91.82
776.028	160.08
776.215	49.49
776.402	-36.52
776.59	20.82
776.777	-69.29
776.964	-40.62
777.151	-100.01
777.338	-16.04
777.526	123.22
777.713	-42.67
777.9	-44.71
778.087	-65.19
778.274	2.39
778.461	84.31
778.649	74.07
778.836	-20.14
779.023	39.25
779.21	35.16
779.397	106.84
779.584	106.84
779.771	4.44
779.958	-69.29
780.145	22.87
780.332	53.59
780.519	-22.19
780.706	-57
780.893	29.01
781.08	-77.48
781.267	2.39
781.454	-26.28
781.641	18.77
781.828	94.55
782.015	55.64
782.202	80.21
782.388	129.36
782.575	-67.24
782.762	-11.95
782.949	57.68
783.136	14.68
783.323	-5.8
783.509	-42.67
783.696	-34.47
783.883	-30.38
784.07	-85.67
784.257	-11.95
784.443	22.87
784.63	49.49
784.817	45.4
785.004	0.34
785.19	69.97
785.377	-16.04
785.564	65.88
785.75	10.58
785.937	-11.95
786.124	-1.71
786.31	43.35
786.497	12.63
786.683	8.53
786.87	14.68
787.057	57.68
787.243	63.83
787.43	-11.95
787.616	45.4
787.803	20.82
787.989	-42.67
788.176	-81.58
788.362	10.58
788.549	39.25
788.735	143.7
788.922	12.63
789.108	39.25
789.295	-30.38
789.481	35.16
789.668	53.59
789.854	29.01
790.04	-30.38
790.227	-3.75
790.413	-48.81
790.599	-30.38
790.786	-59.05
790.972	-44.71
791.158	-40.62
791.345	-52.91
791.531	84.31
791.717	2.39
791.904	6.49
792.09	110.93
792.276	-11.95
792.462	14.68
792.649	-13.99
792.835	49.49
793.021	53.59
793.207	16.73
793.393	1229.12
793.58	5363.97
793.766	8329.43
793.952	8120.54
794.138	8184.02
794.324	6680.82
794.51	4405.52
794.696	2885.93
794.882	2410.8
795.069	663.88
795.255	360.78
795.441	67.92
795.627	8.53
795.813	45.4
795.999	92.5
796.185	-38.57
796.371	-40.62
796.557	29.01
796.743	78.16
796.929	61.78
797.115	22.87
797.3	18.77
797.486	160.08
797.672	162.13
797.858	31.06
798.044	-59.05
798.23	-97.96
798.416	100.69
798.602	22.87
798.788	2.39
798.973	-46.76
799.159	110.93
799.345	1218.88
799.531	2578.73
799.717	3578.14
799.902	5329.16
800.088	6717.68
800.274	7936.22
800.46	11423.91
800.645	12210.33
800.831	8968.4
801.017	6529.27
801.202	6047.99
801.388	3944.73
801.574	2222.39
801.759	1163.59
801.945	799.05
802.131	133.46
802.316	160.08
802.502	12.63
802.687	33.11
802.873	-16.04
803.058	39.25
803.244	-57
803.43	119.12
803.615	-28.33
803.801	24.92
803.986	49.49
804.172	-38.57
804.357	-1.71
804.543	-75.43
804.728	69.97
804.913	-40.62
805.099	55.64
805.284	-118.44
805.47	59.73
805.655	12.63
805.84	69.97
806.026	57.68
806.211	29.01
806.397	67.92
806.582	-54.95
806.767	24.92
806.953	80.21
807.138	112.98
807.323	98.64
807.508	26.96
807.694	-9.9
807.879	82.26
808.064	-77.48
808.249	153.94
808.435	301.39
808.62	858.44
808.805	1159.49
808.99	4286.74
809.175	7491.81
809.361	10182.84
809.546	11378.86
809.731	14270.59
809.916	13486.22
810.101	12411.03
810.286	15972.45
810.471	21348.37
810.656	20465.69
810.841	19058.74
811.026	20367.39
811.211	18126.91
811.396	13566.09
811.581	11741.35
811.766	10789.04
811.951	8311
812.136	5474.56
812.321	5185.8
812.506	4067.61
812.691	2537.77
812.876	1270.08
813.061	1544.51
813.246	696.65
813.431	250.19
813.616	2.39
813.801	225.62
813.986	125.27
814.17	31.06
814.355	-5.8
814.54	67.92
814.725	110.93
814.91	65.88
815.094	-7.85
815.279	45.4
815.464	119.12
815.649	39.25
815.833	61.78
816.018	55.64
816.203	-87.72
816.388	14.68
816.572	43.35
816.757	-50.86
816.942	10.58
817.126	2.39
817.311	76.12
817.496	72.02
817.68	98.64
817.865	14.68
818.049	90.45
818.234	0.34
818.419	12.63
818.603	45.4
818.788	-38.57
818.972	47.44
819.157	72.02
819.341	-42.67
819.526	-42.67
819.71	72.02
819.895	24.92
820.079	63.83
820.264	2.39
820.448	45.4
820.633	-42.67
820.817	18.77
821.001	-40.62
821.186	96.6
821.37	94.55
821.554	-91.82
821.739	-69.29
821.923	6.49
822.108	-32.43
822.292	-52.91
822.476	98.64
822.66	18.77
822.845	51.54
823.029	104.79
823.213	-36.52
823.398	-26.28
823.582	29.01
823.766	43.35
823.95	-67.24
824.134	53.59
824.319	-83.63
824.503	-79.53
824.687	51.54
824.871	88.4
825.055	-42.67
825.239	94.55
825.423	96.6
825.608	2320.69
825.792	2365.75
825.976	2554.16
826.16	2699.56
826.344	2289.97
826.528	526.67
826.712	262.48
826.896	-100.01
827.08	49.49
827.264	84.31
827.448	8.53
827.632	-30.38
827.816	31.06
828	22.87
828.184	-104.11
828.368	106.84
828.552	147.8
828.736	22.87
828.919	-102.06
829.103	-63.15
829.287	51.54
829.471	72.02
829.655	-34.47
829.839	110.93
830.023	92.5
830.206	-18.09
830.39	-65.19
830.574	29.01
830.758	-36.52
830.941	84.31
831.125	35.16
831.309	-50.86
831.493	-57
831.676	-36.52
831.86	8.53
832.044	59.73
832.227	55.64
832.411	10.58
832.595	63.83
832.778	-28.33
832.962	63.83
833.146	-28.33
833.329	-65.19
833.513	-87.72
833.696	2.39
833.88	-77.48
834.064	47.44
834.247	53.59
834.431	53.59
834.614	-36.52
834.798	-59.05
834.981	16.73
835.165	12.63
835.348	-69.29
835.532	-5.8
835.715	14.68
835.898	26.96
836.082	49.49
836.265	-145.06
836.449	-16.04
836.632	-50.86
836.815	80.21
836.999	39.25
837.182	-30.38
837.365	12.63
837.549	39.25
837.732	-18.09
837.915	74.07
838.099	2.39
838.282	-9.9
838.465	-3.75
838.648	-5.8
838.832	-11.95
839.015	4.44
839.198	80.21
839.381	-18.09
839.565	-36.52
839.748	90.45
839.931	2224.44
840.114	5040.39
840.297	6328.56
840.48	5228.81
840.663	5683.45
840.847	5275.91
841.03	4040.98
841.213	2414.9
841.396	3381.54
841.579	4747.53
841.762	6379.76
841.945	6967.53
842.128	6973.67
842.311	6547.7
842.494	5507.33
842.677	2818.35
842.86	1687.87
843.043	1192.26
843.226	852.3
843.409	39.25
843.592	-5.8
843.775	49.49
843.958	49.49
844.141	102.74
844.323	-24.23
844.506	2.39
844.689	-22.19
844.872	4.44
845.055	-167.59
845.238	72.02
845.42	-30.38
845.603	-3.75
845.786	-1.71
845.969	57.68
846.152	-7.85
846.334	20.82
846.517	12.63
846.7	-42.67
846.883	-20.14
847.065	-13.99
847.248	-24.23
847.431	-13.99
847.613	100.69
847.796	2.39
847.979	-38.57
848.161	63.83
848.344	57.68
848.526	2.39
848.709	-20.14
848.892	-63.15
849.074	-57
849.257	-40.62
849.439	119.12
849.622	-48.81
849.804	6.49
849.987	-36.52
850.169	0.34
850.352	76.12
850.534	-93.87
850.717	-93.87
850.899	8.53
851.082	98.64
851.264	-7.85
851.446	33.11
851.629	78.16
851.811	307.54
851.994	90.45
852.176	26.96
852.358	61.78
852.541	-40.62
852.723	-97.96
852.905	-22.19
853.088	-34.47
853.27	12.63
853.452	12.63
853.635	-116.39
853.817	51.54
853.999	37.2
854.181	-32.43
854.363	82.26
854.546	18.77
854.728	26.96
854.91	57.68
855.092	6.49
855.274	61.78
855.457	10.58
855.639	-13.99
855.821	-46.76
856.003	-22.19
856.185	39.25
856.367	-93.87
856.549	6.49
856.731	43.35
856.913	2.39
857.095	78.16
857.277	-46.76
857.459	55.64
857.641	-24.23
857.823	-112.3
858.005	12.63
858.187	55.64
858.369	47.44
858.551	-65.19
858.733	35.16
858.915	43.35
859.097	-89.77
859.279	-57
859.461	96.6
859.643	61.78
859.824	6.49
860.006	-18.09
860.188	16.73
860.37	6.49
860.552	-63.15
860.734	18.77
860.915	-42.67
861.097	20.82
861.279	123.22
861.461	-73.39
861.642	-16.04
861.824	-65.19
862.006	149.84
862.188	-7.85
862.369	39.25
862.551	57.68
862.733	-118.44
862.914	6.49
863.096	16.73
863.278	49.49
863.459	67.92
863.641	-13.99
863.822	6.49
864.004	-59.05
864.185	94.55
864.367	53.59
864.549	-30.38
864.73	29.01
864.912	69.97
865.093	-1.71
865.275	-34.47
865.456	0.34
865.638	8.53
865.819	84.31
866.001	26.96
866.182	-61.1
866.363	104.79
866.545	-40.62
866.726	-77.48
866.908	33.11
867.089	90.45
867.27	-30.38
867.452	41.3
867.633	31.06
867.814	41.3
867.996	51.54
868.177	-46.76
868.358	-18.09
868.54	2.39
868.721	-3.75
868.902	139.6
869.083	-77.48
869.265	33.11
869.446	-3.75
869.627	-36.52
869.808	4.44
869.989	78.16
870.171	-32.43
870.352	-26.28
870.533	-65.19
870.714	-59.05
870.895	-61.1
871.076	20.82
871.257	55.64
871.438	12.63
871.619	0.34
871.801	178.51
871.982	22.87
872.163	90.45
872.344	-79.53
872.525	-50.86
872.706	74.07
872.887	-11.95
873.068	51.54
873.249	115.03
873.43	31.06
873.61	-34.47
873.791	-1.71
873.972	-3.75
874.153	24.92
874.334	174.42
874.515	-106.15
874.696	-65.19
874.877	-34.47
875.058	-61.1
875.238	78.16
875.419	-40.62
875.6	-11.95
875.781	-108.2
875.962	65.88
876.142	-52.91
876.323	49.49
876.504	-114.34
876.685	4.44
876.865	80.21
877.046	59.73
877.227	10.58
877.407	-65.19
877.588	-3.75
877.769	104.79
877.949	-52.91
878.13	-30.38
878.311	-77.48
878.491	47.44
878.672	98.64
878.853	-24.23
879.033	24.92
879.214	31.06
879.394	-38.57
879.575	65.88
879.755	-7.85
879.936	-54.95
880.116	53.59
880.297	-32.43
880.477	-54.95
880.658	-36.52
880.838	-1.71
881.019	-40.62
881.199	-22.19
881.38	-52.91
881.56	-42.67
881.74	14.68
881.921	12.63
882.101	45.4
882.281	26.96
882.462	-36.52
882.642	-20.14
882.822	-97.96
883.003	-130.73
883.183	4.44
883.363	6.49
883.544	31.06
883.724	-24.23
883.904	14.68
884.084	-1.71
884.265	-52.91
884.445	20.82
884.625	-18.09
884.805	102.74
884.985	-71.34
885.166	-7.85
885.346	12.63
885.526	80.21
885.706	78.16
885.886	-28.33
886.066	47.44
886.246	18.77
886.426	-16.04
886.606	51.54
886.787	-26.28
886.967	69.97
887.147	102.74
887.327	55.64
887.507	-22.19
887.687	84.31
887.867	-11.95
888.047	63.83
888.227	47.44
888.406	18.77
888.586	-93.87
888.766	-3.75
888.946	121.17
889.126	72.02
889.306	-11.95
889.486	10.58
889.666	-59.05
889.846	-9.9
890.025	35.16
890.205	22.87
890.385	-7.85
890.565	65.88
890.745	-20.14
890.924	-7.85
891.104	26.96
891.284	26.96
891.464	90.45
891.643	-16.04
891.823	-65.19
892.003	51.54
892.183	29.01
892.362	-54.95
892.542	-30.38
892.722	-11.95
892.901	-73.39
893.081	-1.71
893.26	4.44
893.44	8.53
893.62	115.03
893.799	37.2
893.979	-32.43
894.158	-126.63
894.338	10.58
894.517	24.92
894.697	-3.75
894.877	4.44
895.056	-13.99
895.236	-126.63
895.415	-22.19
895.594	84.31
895.774	-9.9
895.953	72.02
896.133	-26.28
896.312	-77.48
896.492	-3.75
896.671	-5.8
896.85	20.82
897.03	94.55
897.209	29.01
897.388	6.49
897.568	47.44
897.747	121.17
897.926	-54.95
898.106	35.16
898.285	92.5
898.464	26.96
898.643	-124.58
898.823	0.34
899.002	-48.81
899.181	49.49
899.36	-7.85
899.54	-61.1
899.719	-110.25
899.898	31.06
900.077	-57
900.256	51.54
900.435	0.34
900.614	-134.82
900.794	6.49
900.973	117.08
901.152	22.87
901.331	102.74
901.51	-130.73
901.689	78.16
901.868	6.49
902.047	78.16
902.226	16.73
902.405	-77.48
902.584	-13.99
902.763	20.82
902.942	24.92
903.121	-24.23
903.3	29.01
903.479	-42.67
903.658	61.78
903.837	-63.15
904.015	-5.8
904.194	43.35
904.373	80.21
904.552	-65.19
904.731	-24.23
904.91	129.36
905.089	14.68
905.267	65.88
905.446	51.54
905.625	12.63
905.804	-46.76
905.982	-13.99
906.161	33.11
906.34	-87.72
906.519	14.68
906.697	47.44
906.876	-5.8
907.055	-16.04
907.233	-69.29
907.412	-5.8
907.591	10.58
907.769	-7.85
907.948	12.63
908.127	-20.14
908.305	57.68
908.484	18.77
908.662	-89.77
908.841	61.78
909.019	-32.43
909.198	-54.95
909.377	-81.58
909.555	-69.29
909.734	6.49
909.912	90.45
910.09	43.35
910.269	-26.28
910.447	35.16
910.626	51.54
910.804	4.44
910.983	29.01
911.161	2.39
911.339	-1.71
911.518	53.59
911.696	-120.49
911.875	-73.39
912.053	-3.75
912.231	-73.39
912.41	72.02
912.588	43.35
912.766	-32.43
912.944	-11.95
913.123	16.73
913.301	248.15
913.479	74.07
913.657	26.96
913.836	129.36
914.014	10.58
914.192	-42.67
914.37	-7.85
914.548	-7.85
914.727	92.5
914.905	61.78
915.083	16.73
915.261	82.26
915.439	-79.53
915.617	67.92
915.795	-122.54
915.973	-42.67
916.151	-11.95
916.329	-73.39
916.508	6.49
916.686	-61.1
916.864	-30.38
917.042	0.34
917.22	117.08
917.398	-24.23
917.575	4.44
917.753	-59.05
917.931	67.92
918.109	47.44
918.287	-28.33
918.465	16.73
918.643	-11.95
918.821	-91.82
918.999	37.2
919.177	45.4
919.354	35.16
919.532	8.53
919.71	-104.11
919.888	-30.38
920.066	6.49
920.243	-36.52
920.421	-34.47
920.599	119.12
920.777	10.58
920.954	80.21
921.132	53.59
921.31	10.58
921.488	16.73
921.665	29.01
921.843	-24.23
922.021	0.34
922.198	-42.67
922.376	47.44
922.553	100.69
922.731	121.17
922.909	57.68
923.086	2.39
923.264	31.06
923.441	117.08
923.619	80.21
923.796	-59.05
923.974	-42.67
924.152	-46.76
924.329	-38.57
924.507	-57
924.684	31.06
924.861	-16.04
925.039	133.46
925.216	-16.04
925.394	63.83
925.571	47.44
925.749	10.58
925.926	37.2
926.103	-48.81
926.281	2.39
926.458	-83.63
926.635	-22.19
926.813	-30.38
926.99	-77.48
927.167	82.26
927.345	-81.58
927.522	-24.23
927.699	102.74
927.876	149.84
928.054	-13.99
928.231	-52.91
928.408	53.59
928.585	-13.99
928.763	-102.06
928.94	86.36
929.117	69.97
929.294	65.88
929.471	-26.28
929.648	-89.77
929.825	51.54
930.003	-5.8
930.18	-42.67
930.357	53.59
930.534	22.87
930.711	-22.19
930.888	-26.28
931.065	20.82
931.242	-106.15
931.419	35.16
931.596	-44.71
931.773	-75.43
931.95	-1.71
932.127	-5.8
932.304	-28.33
932.481	12.63
932.658	18.77
932.835	-9.9
933.011	-44.71
933.188	26.96
933.365	61.78
933.542	49.49
933.719	10.58
933.896	26.96
934.073	-130.73
934.249	90.45
934.426	33.11
934.603	-61.1
934.78	37.2
934.957	-46.76
935.133	147.8
935.31	104.79
935.487	24.92
935.664	20.82
935.84	-16.04
936.017	-102.06
936.194	47.44
936.37	-75.43
936.547	-65.19
936.724	-24.23
936.9	16.73
937.077	-11.95
937.253	-24.23
937.43	-50.86
937.607	45.4
937.783	-63.15
937.96	57.68
938.136	92.5
938.313	24.92
938.489	-28.33
938.666	33.11
938.842	78.16
939.019	-20.14
939.195	-157.35
939.372	115.03
939.548	39.25
939.725	-11.95
939.901	-59.05
940.077	-9.9
940.254	-24.23
940.43	-40.62
940.607	-59.05
940.783	-42.67
940.959	16.73
941.136	24.92
941.312	-24.23
941.488	-38.57
941.665	-54.95
941.841	82.26
942.017	76.12
942.193	49.49
942.37	33.11
942.546	20.82
942.722	59.73
942.898	69.97
943.074	-59.05
943.251	74.07
943.427	-7.85
943.603	115.03
943.779	-34.47
943.955	37.2
944.131	-11.95
944.308	-34.47
944.484	16.73
944.66	78.16
944.836	-3.75
945.012	53.59
945.188	63.83
945.364	84.31
945.54	6.49
945.716	-59.05
945.892	-11.95
946.068	59.73
946.244	-20.14
946.42	57.68
946.596	-65.19
946.772	41.3
946.948	-59.05
947.124	-69.29
947.3	26.96
947.475	115.03
947.651	-40.62
947.827	-42.67
948.003	-42.67
948.179	110.93
948.355	-97.96
948.531	-26.28
948.706	6.49
948.882	51.54
949.058	-63.15
949.234	65.88
949.409	-13.99
949.585	-126.63
949.761	-34.47
949.937	-20.14
950.112	-44.71
950.288	39.25
950.464	74.07
950.639	102.74
950.815	33.11
950.991	24.92
951.166	82.26
951.342	12.63
951.518	57.68
951.693	0.34
951.869	-67.24
952.044	-108.2
952.22	151.89
952.395	-24.23
952.571	-89.77
952.747	31.06
952.922	37.2
953.098	145.75
953.273	24.92
953.448	-83.63
953.624	-32.43
953.799	110.93
953.975	6.49
954.15	-5.8
954.326	8.53
954.501	-16.04
954.676	-46.76
954.852	-18.09
955.027	-46.76
955.203	-112.3
955.378	96.6
955.553	16.73
955.729	78.16
955.904	-102.06
956.079	-16.04
956.254	94.55
956.43	20.82
956.605	119.12
956.78	-169.64
956.955	78.16
957.131	2.39
957.306	-26.28
957.481	125.27
957.656	22.87
957.831	65.88
958.007	14.68
958.182	43.35
958.357	129.36
958.532	-3.75
958.707	26.96
958.882	-1.71
959.057	6.49
959.232	10.58
959.407	14.68
959.582	117.08
959.757	168.27
959.932	26.96
960.107	-5.8
960.282	72.02
960.457	88.4
960.632	-34.47
960.807	-24.23
960.982	-34.47
961.157	-67.24
961.332	-20.14
961.507	-132.78
961.682	-36.52
961.857	-22.19
962.032	-48.81
962.206	-110.25
962.381	26.96
962.556	18.77
962.731	55.64
962.906	-97.96
963.081	33.11
963.255	-16.04
963.43	-79.53
963.605	12.63
963.78	-54.95
963.954	-42.67
964.129	78.16
964.304	35.16
964.479	76.12
964.653	-28.33
964.828	-42.67
965.003	22.87
965.177	61.78
965.352	-54.95
965.526	35.16
965.701	104.79
965.876	110.93
966.05	-57
966.225	-20.14
966.399	-16.04
966.574	-73.39
966.748	16.73
966.923	94.55
967.098	65.88
967.272	-1.71
967.446	65.88
967.621	43.35
967.795	72.02
967.97	-85.67
968.144	-9.9
968.319	-9.9
968.493	-9.9
968.668	-11.95
968.842	80.21
969.016	37.2
969.191	35.16
969.365	16.73
969.539	65.88
969.714	33.11
969.888	-77.48
970.062	10.58
970.237	-1.71
970.411	14.68
970.585	92.5
970.759	-13.99
970.934	-97.96
971.108	22.87
971.282	6.49
971.456	-18.09
971.63	10.58
971.805	-95.91
971.979	-38.57
972.153	18.77
972.327	-5.8
972.501	-5.8
972.675	4.44
972.849	0.34
973.024	26.96
973.198	-32.43
973.372	-44.71
973.546	0.34
973.72	-28.33
973.894	18.77
974.068	-5.8
974.242	-36.52
974.416	31.06
974.59	-52.91
974.764	-61.1
974.938	-1.71
975.112	-28.33
975.286	65.88
975.46	37.2
975.633	-26.28
975.807	0.34
975.981	53.59
976.155	-1.71
976.329	29.01
976.503	-54.95
976.677	-3.75
976.85	51.54
977.024	-44.71
977.198	-11.95
977.372	-106.15
977.546	112.98
977.719	-116.39
977.893	2.39
978.067	-54.95
978.241	-75.43
978.414	-71.34
978.588	-24.23
978.762	-22.19
978.935	47.44
979.109	37.2
979.283	67.92
979.456	104.79
979.63	-52.91
979.804	-30.38
979.977	-13.99
980.151	-97.96
980.324	55.64
980.498	37.2
980.671	-36.52
980.845	-32.43
981.018	45.4
981.192	-1.71
981.365	14.68
981.539	61.78
981.712	-91.82
981.886	-116.39
982.059	-46.76
982.233	-93.87
982.406	39.25
982.58	63.83
982.753	35.16
982.926	39.25
983.1	63.83
983.273	53.59
983.446	-3.75
983.62	8.53
983.793	-1.71
983.966	-3.75
984.14	-11.95
984.313	-1.71
984.486	-18.09
984.66	35.16
984.833	125.27
985.006	-77.48
985.179	41.3
985.352	0.34
985.526	-57
985.699	-42.67
985.872	43.35
986.045	26.96
986.218	-32.43
986.391	-42.67
986.565	49.49
986.738	-59.05
986.911	-77.48
987.084	51.54
987.257	4.44
987.43	-13.99
987.603	41.3
987.776	-11.95
987.949	41.3
988.122	-24.23
988.295	-95.91
988.468	-26.28
988.641	51.54
988.814	-9.9
988.987	-42.67
989.16	-38.57
989.333	-67.24
989.506	-73.39
989.679	-83.63
989.852	88.4
990.025	55.64
990.197	59.73
990.37	6.49
990.543	-59.05
990.716	-16.04
990.889	-11.95
991.062	-75.43
991.234	-77.48
991.407	-179.88
991.58	16.73
991.753	4.44
991.925	8.53
992.098	-13.99
992.271	-13.99
992.444	14.68
992.616	-32.43
992.789	80.21
992.962	-26.28
993.134	-3.75
993.307	6.49
993.479	-42.67
993.652	12.63
993.825	-38.57
993.997	57.68
994.17	-77.48
994.342	22.87
994.515	-67.24
994.688	12.63
994.86	31.06
995.033	-32.43
995.205	129.36
995.378	-5.8
995.55	80.21
995.723	-52.91
995.895	26.96
996.067	-32.43
996.24	57.68
996.412	-42.67
996.585	20.82
996.757	-16.04
996.929	-5.8
997.102	-87.72
997.274	-50.86
997.447	-9.9
997.619	-42.67
997.791	84.31
997.964	-89.77
998.136	108.88
998.308	74.07
998.48	35.16
998.653	82.26
998.825	4.44
998.997	-9.9
999.169	-110.25
999.342	-26.28
999.514	-83.63
999.686	55.64
999.858	0.34
1000.03	61.78
1000.202	-36.52
1000.374	-61.1
1000.547	-48.81
1000.719	-28.33
1000.891	-30.38
1001.063	-30.38
1001.235	-48.81
1001.407	-65.19
1001.579	-20.14
1001.751	51.54
1001.923	-71.34
1002.095	-16.04
1002.267	69.97
1002.439	-24.23
1002.611	-77.48
1002.783	10.58
1002.955	-30.38
1003.127	0.34
1003.299	-57
1003.471	-65.19
1003.643	61.78
1003.815	-16.04
1003.986	-26.28
1004.158	69.97
1004.33	-28.33
1004.502	82.26
1004.674	4.44
1004.846	-36.52
1005.017	-50.86
1005.189	10.58
1005.361	-54.95
1005.533	-18.09
1005.704	63.83
1005.876	-3.75
1006.048	67.92
1006.22	-26.28
1006.391	24.92
1006.563	8.53
1006.735	53.59
1006.906	-54.95
1007.078	-233.13
1007.25	-16.04
1007.421	22.87
1007.593	47.44
1007.764	20.82
1007.936	131.41
1008.108	-26.28
1008.279	63.83
1008.451	-36.52
1008.622	88.4
1008.794	-28.33
1008.965	49.49
1009.137	51.54
1009.308	-44.71
1009.48	-54.95
1009.651	86.36
1009.823	51.54
1009.994	-28.33
1010.165	24.92
1010.337	-114.34
1010.508	-77.48
1010.68	80.21
1010.851	-22.19
1011.022	-85.67
1011.194	-61.1
1011.365	-75.43
1011.536	-50.86
1011.708	31.06
1011.879	131.41
1012.05	137.56
1012.222	84.31
1012.393	117.08
1012.564	-13.99
1012.735	164.18
1012.906	-87.72
1013.078	31.06
1013.249	8.53
1013.42	-34.47
1013.591	-9.9
1013.762	104.79
1013.934	72.02
1014.105	-114.34
1014.276	123.22
1014.447	-13.99
1014.618	86.36
1014.789	72.02
1014.96	61.78
1015.131	33.11
1015.302	-18.09
1015.473	-22.19
1015.644	-3.75
1015.815	-138.92
1015.986	-48.81
1016.157	-54.95
1016.328	-63.15
1016.499	-57
1016.67	-1.71
1016.841	47.44
1017.012	51.54
1017.183	-20.14
1017.354	-18.09
1017.525	4.44
1017.696	-46.76
1017.867	-75.43
1018.037	4.44
1018.208	119.12
1018.379	-5.8
1018.55	26.96
1018.721	26.96
1018.891	14.68
1019.062	-75.43
1019.233	76.12
1019.404	-26.28
1019.574	-11.95
1019.745	-85.67
1019.916	-75.43
1020.087	16.73
1020.257	-140.97
1020.428	-122.54
1020.599	2.39
1020.769	41.3
1020.94	-75.43
1021.11	65.88
1021.281	-32.43
1021.452	31.06
1021.622	-52.91
1021.793	4.44
1021.963	78.16
1022.134	-79.53
1022.305	-13.99
1022.475	115.03
1022.646	29.01
1022.816	-28.33
1022.987	61.78
1023.157	53.59
1023.327	6.49
1023.498	-22.19
1023.668	63.83
1023.839	41.3
1024.009	-97.96
1024.18	22.87
1024.35	33.11
1024.52	78.16
1024.691	22.87
1024.861	-9.9
1025.031	-32.43
1025.202	-11.95
1025.372	20.82
1025.542	-48.81
1025.713	82.26
1025.883	39.25
1026.053	-34.47
1026.223	4.44
1026.394	-44.71
1026.564	2.39
1026.734	-3.75
1026.904	-50.86
1027.074	6.49
1027.245	-61.1
1027.415	53.59
1027.585	-26.28
1027.755	0.34
1027.925	-108.2
1028.095	31.06
1028.265	74.07
1028.435	-32.43
1028.606	-40.62
1028.776	-26.28
1028.946	29.01
1029.116	-30.38
1029.286	47.44
1029.456	-24.23
1029.626	-36.52
1029.796	4.44
1029.966	-42.67
1030.136	-11.95
1030.306	-24.23
1030.475	102.74
1030.645	-89.77
1030.815	-3.75
1030.985	-44.71
1031.155	51.54
1031.325	-67.24
1031.495	-20.14
1031.665	4.44
1031.835	131.41
1032.004	20.82
1032.174	-183.98
1032.344	-26.28
1032.514	-28.33
1032.684	-5.8
1032.853	-71.34
1033.023	63.83
1033.193	-11.95
1033.362	-77.48
1033.532	35.16
1033.702	-18.09
1033.872	84.31
1034.041	41.3
1034.211	94.55
1034.381	-106.15
1034.55	-120.49
1034.72	-89.77
1034.889	41.3
1035.059	-42.67
1035.229	-34.47
1035.398	-61.1
1035.568	92.5
1035.737	-157.35
1035.907	-48.81
1036.076	69.97
1036.246	-110.25
1036.415	35.16
1036.585	-48.81
1036.754	2.39
1036.924	-22.19
1037.093	-40.62
1037.263	-40.62
1037.432	82.26
1037.601	-50.86
1037.771	-73.39
1037.94	10.58
1038.11	-128.68
1038.279	-116.39
1038.448	-118.44
1038.618	37.2
1038.787	16.73
1038.956	2.39
1039.126	-32.43
1039.295	57.68
1039.464	18.77
1039.633	-38.57
1039.803	-67.24
1039.972	110.93
1040.141	-85.67
1040.31	10.58
1040.479	72.02
1040.649	41.3
1040.818	-91.82
1040.987	-102.06
1041.156	-9.9
1041.325	22.87
1041.494	-73.39
1041.663	24.92
1041.833	-1.71
1042.002	39.25
1042.171	-52.91
1042.34	-126.63
1042.509	24.92
1042.678	-22.19
