Data from LSP51_S1_Subt2_14-59-50-834.txt Node
Date: Wed Aug 09 14:59:50 EDT 2023
User: Emmanuel
Spectrometer: USB4A00615
Scans to average: 1
Trigger mode: 1
Integration Time (sec): 4.000000E-3
Electric dark correction enabled: true
Boxcar width: 0
XAxis mode: Wavelengths
Number of Pixels in Spectrum: 3648
>>>>>Begin Spectral Data<<<<<
346.606	96.94
346.818	96.94
347.029	96.94
347.241	144.04
347.452	185
347.664	29.35
347.876	-5.46
348.087	-52.56
348.299	8.87
348.51	72.36
348.722	4.78
348.933	-13.65
349.145	-38.23
349.356	-13.65
349.568	-46.42
349.779	68.27
349.991	-13.65
350.202	0.68
350.414	90.79
350.625	10.92
350.836	49.83
351.048	-50.52
351.259	-40.28
351.471	94.89
351.682	47.79
351.893	72.36
352.105	47.79
352.316	15.02
352.527	31.4
352.739	-60.76
352.95	10.92
353.161	-5.46
353.372	-25.94
353.584	55.98
353.795	88.75
354.006	158.38
354.217	68.27
354.429	2.73
354.64	-54.61
354.851	-17.75
355.062	-3.41
355.274	2.73
355.485	6.83
355.696	-68.95
355.907	-5.46
356.118	-21.85
356.329	45.74
356.54	-73.04
356.752	4.78
356.963	172.71
357.174	33.45
357.385	35.5
357.596	-5.46
357.807	25.26
358.018	109.22
358.229	101.03
358.44	-85.33
358.651	92.84
358.862	53.93
359.073	76.46
359.284	43.69
359.495	47.79
359.706	-11.61
359.917	27.31
360.128	39.59
360.339	6.83
360.55	-1.37
360.761	-62.8
360.972	45.74
361.182	10.92
361.393	45.74
361.604	12.97
361.815	76.46
362.026	98.99
362.237	70.31
362.447	-25.94
362.658	15.02
362.869	68.27
363.08	82.6
363.291	43.69
363.501	0.68
363.712	80.55
363.923	82.6
364.134	-32.08
364.344	21.16
364.555	41.64
364.766	96.94
364.976	35.5
365.187	17.07
365.398	51.88
365.608	19.11
365.819	55.98
366.03	-3.41
366.24	76.46
366.451	-77.14
366.662	72.36
366.872	41.64
367.083	103.08
367.293	55.98
367.504	123.56
367.714	39.59
367.925	60.07
368.135	39.59
368.346	109.22
368.557	-3.41
368.767	51.88
368.977	-23.89
369.188	105.13
369.398	74.41
369.609	141.99
369.819	35.5
370.03	33.45
370.24	109.22
370.451	80.55
370.661	10.92
370.871	150.18
371.082	45.74
371.292	111.27
371.502	10.92
371.713	45.74
371.923	-11.61
372.133	74.41
372.344	21.16
372.554	60.07
372.764	6.83
372.975	41.64
373.185	53.93
373.395	-44.37
373.605	-52.56
373.816	43.69
374.026	37.55
374.236	12.97
374.446	6.83
374.656	27.31
374.867	6.83
375.077	51.88
375.287	64.17
375.497	0.68
375.707	15.02
375.917	31.4
376.127	101.03
376.338	49.83
376.548	10.92
376.758	12.97
376.968	109.22
377.178	72.36
377.388	-36.18
377.598	39.59
377.808	4.78
378.018	182.95
378.228	72.36
378.438	49.83
378.648	35.5
378.858	80.55
379.068	-11.61
379.278	62.12
379.488	-66.9
379.698	-13.65
379.908	12.97
380.118	49.83
380.327	19.11
380.537	-23.89
380.747	-83.28
380.957	12.97
381.167	29.35
381.377	12.97
381.587	90.79
381.796	66.22
382.006	37.55
382.216	27.31
382.426	-60.76
382.636	35.5
382.845	-9.56
383.055	103.08
383.265	133.8
383.475	29.35
383.684	8.87
383.894	113.32
384.104	-85.33
384.313	37.55
384.523	70.31
384.733	49.83
384.942	-19.8
385.152	103.08
385.362	-54.61
385.571	27.31
385.781	49.83
385.991	-46.42
386.2	78.51
386.41	10.92
386.619	90.79
386.829	199.34
387.038	-15.7
387.248	94.89
387.457	84.65
387.667	21.16
387.876	-15.7
388.086	58.03
388.295	27.31
388.505	174.76
388.714	109.22
388.924	-19.8
389.133	76.46
389.343	29.35
389.552	-85.33
389.762	17.07
389.971	58.03
390.18	88.75
390.39	152.23
390.599	94.89
390.808	10.92
391.018	25.26
391.227	72.36
391.436	-21.85
391.646	125.61
391.855	82.6
392.064	-32.08
392.274	129.7
392.483	35.5
392.692	-7.51
392.901	-17.75
393.111	41.64
393.32	-30.04
393.529	86.7
393.738	-9.56
393.947	-3.41
394.157	141.99
394.366	101.03
394.575	53.93
394.784	144.04
394.993	-40.28
395.202	41.64
395.411	2.73
395.62	103.08
395.83	113.32
396.039	-46.42
396.248	-15.7
396.457	60.07
396.666	-15.7
396.875	-13.65
397.084	8.87
397.293	4.78
397.502	76.46
397.711	-50.52
397.92	72.36
398.129	-13.65
398.338	15.02
398.547	41.64
398.756	82.6
398.965	55.98
399.174	31.4
399.382	115.37
399.591	4.78
399.8	-13.65
400.009	-21.85
400.218	10.92
400.427	35.5
400.636	49.83
400.844	51.88
401.053	62.12
401.262	6.83
401.471	94.89
401.68	27.31
401.888	62.12
402.097	92.84
402.306	12.97
402.515	113.32
402.723	-1.37
402.932	43.69
403.141	66.22
403.35	25.26
403.558	-97.62
403.767	86.7
403.976	-21.85
404.184	6.83
404.393	150.18
404.602	10.92
404.81	-38.23
405.019	-66.9
405.227	29.35
405.436	2.73
405.645	19.11
405.853	45.74
406.062	-62.8
406.27	113.32
406.479	4.78
406.687	-21.85
406.896	-87.38
407.104	148.14
407.313	-3.41
407.521	53.93
407.73	82.6
407.938	53.93
408.147	0.68
408.355	25.26
408.563	74.41
408.772	-68.95
408.98	174.76
409.189	47.79
409.397	119.46
409.605	-1.37
409.814	90.79
410.022	25.26
410.23	29.35
410.439	62.12
410.647	21.16
410.855	29.35
411.064	35.5
411.272	17.07
411.48	53.93
411.688	-1.37
411.897	-21.85
412.105	8.87
412.313	141.99
412.521	58.03
412.73	103.08
412.938	76.46
413.146	-38.23
413.354	74.41
413.562	60.07
413.77	90.79
413.979	27.31
414.187	0.68
414.395	15.02
414.603	-38.23
414.811	29.35
415.019	31.4
415.227	113.32
415.435	55.98
415.643	133.8
415.851	-5.46
416.059	8.87
416.267	78.51
416.475	94.89
416.683	15.02
416.891	35.5
417.099	98.99
417.307	109.22
417.515	-34.13
417.723	17.07
417.931	113.32
418.139	197.29
418.347	121.51
418.555	70.31
418.763	92.84
418.971	64.17
419.179	10.92
419.386	-42.32
419.594	68.27
419.802	105.13
420.01	58.03
420.218	21.16
420.426	-48.47
420.633	21.16
420.841	27.31
421.049	-11.61
421.257	12.97
421.464	58.03
421.672	141.99
421.88	27.31
422.088	-27.99
422.295	55.98
422.503	60.07
422.711	107.18
422.918	31.4
423.126	-109.91
423.334	-15.7
423.541	4.78
423.749	6.83
423.956	25.26
424.164	51.88
424.372	141.99
424.579	-120.15
424.787	68.27
424.994	66.22
425.202	2.73
425.409	6.83
425.617	68.27
425.824	-48.47
426.032	74.41
426.239	35.5
426.447	80.55
426.654	-40.28
426.862	129.7
427.069	43.69
427.277	21.16
427.484	88.75
427.692	86.7
427.899	-9.56
428.106	-1.37
428.314	107.18
428.521	115.37
428.728	66.22
428.936	105.13
429.143	45.74
429.351	72.36
429.558	21.16
429.765	23.21
429.972	31.4
430.18	-56.66
430.387	55.98
430.594	17.07
430.801	-19.8
431.009	78.51
431.216	31.4
431.423	33.45
431.63	41.64
431.838	4.78
432.045	101.03
432.252	66.22
432.459	127.66
432.666	51.88
432.873	88.75
433.081	-1.37
433.288	47.79
433.495	-79.19
433.702	6.83
433.909	27.31
434.116	90.79
434.323	70.31
434.53	29.35
434.737	33.45
434.944	72.36
435.151	103.08
435.358	-105.81
435.565	109.22
435.772	-23.89
435.979	60.07
436.186	154.28
436.393	31.4
436.6	88.75
436.807	25.26
437.014	23.21
437.221	-3.41
437.428	43.69
437.635	90.79
437.841	139.94
438.048	64.17
438.255	70.31
438.462	80.55
438.669	109.22
438.876	6.83
439.082	27.31
439.289	17.07
439.496	-3.41
439.703	-9.56
439.91	-42.32
440.116	64.17
440.323	-19.8
440.53	-122.2
440.737	-75.09
440.943	80.55
441.15	-13.65
441.357	-56.66
441.563	2.73
441.77	-19.8
441.977	39.59
442.183	17.07
442.39	64.17
442.597	-73.04
442.803	72.36
443.01	39.59
443.216	-21.85
443.423	94.89
443.63	0.68
443.836	133.8
444.043	-52.56
444.249	12.97
444.456	41.64
444.662	-62.8
444.869	29.35
445.075	103.08
445.282	-11.61
445.488	29.35
445.695	-34.13
445.901	2.73
446.107	55.98
446.314	8.87
446.52	-64.85
446.727	15.02
446.933	35.5
447.139	72.36
447.346	53.93
447.552	-36.18
447.759	-89.43
447.965	60.07
448.171	-7.51
448.378	74.41
448.584	23.21
448.79	51.88
448.996	-56.66
449.203	33.45
449.409	2.73
449.615	76.46
449.821	47.79
450.028	2.73
450.234	60.07
450.44	12.97
450.646	4.78
450.852	-3.41
451.059	-15.7
451.265	15.02
451.471	-30.04
451.677	-9.56
451.883	90.79
452.089	4.78
452.295	2.73
452.502	-3.41
452.708	43.69
452.914	103.08
453.12	66.22
453.326	58.03
453.532	68.27
453.738	-13.65
453.944	137.9
454.15	-5.46
454.356	150.18
454.562	47.79
454.768	-13.65
454.974	49.83
455.18	123.56
455.386	-7.51
455.592	111.27
455.798	113.32
456.003	31.4
456.209	101.03
456.415	35.5
456.621	74.41
456.827	6.83
457.033	60.07
457.239	45.74
457.444	-3.41
457.65	51.88
457.856	-85.33
458.062	115.37
458.268	37.55
458.473	4.78
458.679	-40.28
458.885	86.7
459.091	68.27
459.296	88.75
459.502	33.45
459.708	4.78
459.914	0.68
460.119	37.55
460.325	-122.2
460.531	25.26
460.736	88.75
460.942	2.73
461.147	-1.37
461.353	72.36
461.559	72.36
461.764	-62.8
461.97	15.02
462.175	-19.8
462.381	105.13
462.587	-34.13
462.792	-107.86
462.998	49.83
463.203	123.56
463.409	-81.24
463.614	25.26
463.82	47.79
464.025	41.64
464.231	31.4
464.436	49.83
464.641	31.4
464.847	80.55
465.052	-13.65
465.258	101.03
465.463	-5.46
465.669	53.93
465.874	51.88
466.079	60.07
466.285	113.32
466.49	76.46
466.695	39.59
466.901	64.17
467.106	-122.2
467.311	-54.61
467.516	86.7
467.722	-27.99
467.927	-21.85
468.132	23.21
468.338	88.75
468.543	0.68
468.748	-44.37
468.953	-3.41
469.158	33.45
469.364	-15.7
469.569	103.08
469.774	0.68
469.979	33.45
470.184	74.41
470.389	135.85
470.594	12.97
470.8	8.87
471.005	-38.23
471.21	-27.99
471.415	139.94
471.62	29.35
471.825	101.03
472.03	39.59
472.235	2.73
472.44	82.6
472.645	37.55
472.85	74.41
473.055	107.18
473.26	86.7
473.465	-21.85
473.67	35.5
473.875	70.31
474.08	150.18
474.285	148.14
474.49	-75.09
474.695	-44.37
474.899	0.68
475.104	60.07
475.309	76.46
475.514	94.89
475.719	-91.48
475.924	23.21
476.128	-5.46
476.333	0.68
476.538	31.4
476.743	166.57
476.948	10.92
477.152	10.92
477.357	-36.18
477.562	133.8
477.767	23.21
477.971	90.79
478.176	25.26
478.381	25.26
478.585	72.36
478.79	-15.7
478.995	33.45
479.199	78.51
479.404	-1.37
479.609	2.73
479.813	123.56
480.018	47.79
480.223	80.55
480.427	109.22
480.632	43.69
480.836	160.42
481.041	-13.65
481.245	51.88
481.45	15.02
481.654	68.27
481.859	10.92
482.063	103.08
482.268	121.51
482.472	-25.94
482.677	160.42
482.881	2.73
483.086	-30.04
483.29	105.13
483.495	12.97
483.699	94.89
483.903	-1.37
484.108	84.65
484.312	113.32
484.517	125.61
484.721	55.98
484.925	84.65
485.13	-75.09
485.334	19.11
485.538	-32.08
485.743	-17.75
485.947	2.73
486.151	64.17
486.355	66.22
486.56	55.98
486.764	127.66
486.968	21.16
487.172	-9.56
487.377	60.07
487.581	76.46
487.785	10.92
487.989	74.41
488.193	-40.28
488.397	98.99
488.602	123.56
488.806	-13.65
489.01	27.31
489.214	25.26
489.418	101.03
489.622	-99.67
489.826	62.12
490.03	-17.75
490.234	-52.56
490.438	15.02
490.642	-3.41
490.846	43.69
491.05	-3.41
491.254	-259.41
491.458	178.86
491.662	-77.14
491.866	109.22
492.07	-38.23
492.274	-9.56
492.478	19.11
492.682	174.76
492.886	-3.41
493.09	62.12
493.294	135.85
493.498	35.5
493.701	49.83
493.905	80.55
494.109	72.36
494.313	51.88
494.517	88.75
494.721	166.57
494.924	119.46
495.128	8.87
495.332	-52.56
495.536	68.27
495.739	-62.8
495.943	82.6
496.147	27.31
496.351	78.51
496.554	-9.56
496.758	-52.56
496.962	-48.47
497.165	78.51
497.369	4.78
497.573	55.98
497.776	-9.56
497.98	-5.46
498.184	-48.47
498.387	-38.23
498.591	62.12
498.794	103.08
498.998	-19.8
499.202	105.13
499.405	66.22
499.609	80.55
499.812	-9.56
500.016	29.35
500.219	-34.13
500.423	131.75
500.626	-27.99
500.83	33.45
501.033	-3.41
501.237	62.12
501.44	-1.37
501.643	37.55
501.847	-5.46
502.05	35.5
502.254	-71
502.457	156.33
502.66	-9.56
502.864	45.74
503.067	33.45
503.271	45.74
503.474	55.98
503.677	66.22
503.88	12.97
504.084	25.26
504.287	-19.8
504.49	86.7
504.694	-19.8
504.897	-34.13
505.1	88.75
505.303	10.92
505.507	25.26
505.71	-9.56
505.913	94.89
506.116	21.16
506.319	76.46
506.522	23.21
506.726	72.36
506.929	-60.76
507.132	-50.52
507.335	66.22
507.538	-1.37
507.741	39.59
507.944	-79.19
508.147	55.98
508.35	-15.7
508.553	-15.7
508.756	-5.46
508.959	43.69
509.163	80.55
509.366	103.08
509.569	55.98
509.771	17.07
509.974	70.31
510.177	-5.46
510.38	41.64
510.583	76.46
510.786	-81.24
510.989	78.51
511.192	127.66
511.395	25.26
511.598	10.92
511.801	-3.41
512.004	-77.14
512.206	-79.19
512.409	74.41
512.612	-25.94
512.815	-38.23
513.018	49.83
513.22	164.52
513.423	109.22
513.626	39.59
513.829	-64.85
514.032	29.35
514.234	12.97
514.437	-32.08
514.64	29.35
514.842	-36.18
515.045	62.12
515.248	64.17
515.45	72.36
515.653	-1.37
515.856	31.4
516.058	-128.34
516.261	127.66
516.464	96.94
516.666	53.93
516.869	123.56
517.071	58.03
517.274	129.7
517.477	-48.47
517.679	2.73
517.882	-15.7
518.084	129.7
518.287	-75.09
518.489	96.94
518.692	-19.8
518.894	17.07
519.097	168.62
519.299	19.11
519.501	-50.52
519.704	-19.8
519.906	55.98
520.109	60.07
520.311	15.02
520.514	90.79
520.716	19.11
520.918	-46.42
521.121	29.35
521.323	-27.99
521.525	127.66
521.728	70.31
521.93	135.85
522.132	90.79
522.335	6.83
522.537	62.12
522.739	45.74
522.941	6.83
523.144	-15.7
523.346	47.79
523.548	55.98
523.75	72.36
523.952	37.55
524.155	96.94
524.357	43.69
524.559	-38.23
524.761	-95.57
524.963	15.02
525.165	-38.23
525.368	15.02
525.57	41.64
525.772	25.26
525.974	-44.37
526.176	45.74
526.378	10.92
526.58	86.7
526.782	17.07
526.984	105.13
527.186	-1.37
527.388	78.51
527.59	86.7
527.792	27.31
527.994	76.46
528.196	49.83
528.398	53.93
528.6	12.97
528.802	82.6
529.004	8.87
529.206	-11.61
529.408	84.65
529.609	49.83
529.811	31.4
530.013	23.21
530.215	21.16
530.417	80.55
530.619	41.64
530.821	139.94
531.022	41.64
531.224	-34.13
531.426	64.17
531.628	-7.51
531.829	-58.71
532.031	86.7
532.233	8.87
532.435	-38.23
532.636	0.68
532.838	115.37
533.04	37.55
533.241	8.87
533.443	78.51
533.645	74.41
533.846	64.17
534.048	-46.42
534.25	74.41
534.451	62.12
534.653	-23.89
534.855	123.56
535.056	-36.18
535.258	45.74
535.459	98.99
535.661	96.94
535.862	76.46
536.064	80.55
536.265	51.88
536.467	43.69
536.668	-56.66
536.87	64.17
537.071	-3.41
537.273	49.83
537.474	-46.42
537.676	27.31
537.877	96.94
538.078	29.35
538.28	-21.85
538.481	-95.57
538.683	98.99
538.884	74.41
539.085	111.27
539.287	-46.42
539.488	115.37
539.689	60.07
539.891	101.03
540.092	8.87
540.293	92.84
540.495	17.07
540.696	21.16
540.897	-36.18
541.098	111.27
541.3	55.98
541.501	47.79
541.702	39.59
541.903	-101.72
542.104	80.55
542.306	19.11
542.507	21.16
542.708	84.65
542.909	8.87
543.11	53.93
543.311	51.88
543.512	51.88
543.713	45.74
543.915	6.83
544.116	148.14
544.317	146.09
544.518	113.32
544.719	-34.13
544.92	-9.56
545.121	15.02
545.322	-30.04
545.523	-7.51
545.724	160.42
545.925	78.51
546.126	4.78
546.327	10.92
546.528	21.16
546.729	82.6
546.929	-44.37
547.13	-87.38
547.331	62.12
547.532	23.21
547.733	119.46
547.934	76.46
548.135	39.59
548.336	109.22
548.536	43.69
548.737	-21.85
548.938	39.59
549.139	51.88
549.34	8.87
549.54	-19.8
549.741	86.7
549.942	78.51
550.143	-337.23
550.343	84.65
550.544	60.07
550.745	-15.7
550.945	51.88
551.146	0.68
551.347	-32.08
551.547	15.02
551.748	-25.94
551.949	-50.52
552.149	78.51
552.35	-44.37
552.551	86.7
552.751	39.59
552.952	27.31
553.152	41.64
553.353	-81.24
553.553	-23.89
553.754	33.45
553.954	88.75
554.155	27.31
554.356	64.17
554.556	88.75
554.756	-40.28
554.957	43.69
555.157	113.32
555.358	133.8
555.558	43.69
555.759	51.88
555.959	-48.47
556.159	17.07
556.36	41.64
556.56	55.98
556.761	-27.99
556.961	51.88
557.161	27.31
557.362	154.28
557.562	25.26
557.762	15.02
557.963	-27.99
558.163	27.31
558.363	43.69
558.563	53.93
558.764	-13.65
558.964	51.88
559.164	-7.51
559.364	201.38
559.565	84.65
559.765	39.59
559.965	35.5
560.165	15.02
560.365	-15.7
560.565	51.88
560.766	-46.42
560.966	90.79
561.166	-48.47
561.366	31.4
561.566	113.32
561.766	17.07
561.966	31.4
562.166	113.32
562.366	53.93
562.566	96.94
562.766	101.03
562.966	-36.18
563.166	-25.94
563.366	51.88
563.566	47.79
563.766	62.12
563.966	90.79
564.166	2.73
564.366	94.89
564.566	185
564.766	117.42
564.966	62.12
565.166	62.12
565.366	15.02
565.565	29.35
565.765	49.83
565.965	23.21
566.165	176.81
566.365	76.46
566.565	49.83
566.764	51.88
566.964	76.46
567.164	23.21
567.364	72.36
567.564	21.16
567.763	55.98
567.963	66.22
568.163	70.31
568.362	101.03
568.562	45.74
568.762	33.45
568.961	21.16
569.161	76.46
569.361	-36.18
569.56	84.65
569.76	2.73
569.96	80.55
570.159	-21.85
570.359	-48.47
570.558	74.41
570.758	72.36
570.958	-64.85
571.157	115.37
571.357	127.66
571.556	-25.94
571.756	-38.23
571.955	92.84
572.155	-36.18
572.354	-1.37
572.554	-71
572.753	43.69
572.953	78.51
573.152	72.36
573.351	-50.52
573.551	12.97
573.75	-11.61
573.95	-3.41
574.149	-7.51
574.348	-58.71
574.548	25.26
574.747	-13.65
574.946	2.73
575.146	-44.37
575.345	-50.52
575.544	-56.66
575.744	-83.28
575.943	-50.52
576.142	127.66
576.342	51.88
576.541	111.27
576.74	64.17
576.939	158.38
577.138	144.04
577.338	111.27
577.537	-124.24
577.736	-40.28
577.935	72.36
578.134	51.88
578.333	-7.51
578.533	-3.41
578.732	53.93
578.931	4.78
579.13	23.21
579.329	82.6
579.528	-44.37
579.727	33.45
579.926	33.45
580.125	-5.46
580.324	55.98
580.523	23.21
580.722	-44.37
580.921	-25.94
581.12	-23.89
581.319	74.41
581.518	135.85
581.717	39.59
581.916	-3.41
582.115	72.36
582.314	8.87
582.513	41.64
582.712	25.26
582.911	72.36
583.109	-44.37
583.308	45.74
583.507	-13.65
583.706	60.07
583.905	47.79
584.104	55.98
584.302	74.41
584.501	51.88
584.7	-34.13
584.899	-56.66
585.098	66.22
585.296	10.92
585.495	-3.41
585.694	43.69
585.892	92.84
586.091	37.55
586.29	-7.51
586.488	-11.61
586.687	41.64
586.886	78.51
587.084	-23.89
587.283	62.12
587.482	-81.24
587.68	21.16
587.879	58.03
588.077	12.97
588.276	-25.94
588.475	-50.52
588.673	33.45
588.872	29.35
589.07	25.26
589.269	86.7
589.467	119.46
589.666	-42.32
589.864	158.38
590.063	-40.28
590.261	66.22
590.46	29.35
590.658	-17.75
590.857	86.7
591.055	90.79
591.253	-38.23
591.452	-48.47
591.65	86.7
591.848	60.07
592.047	33.45
592.245	23.21
592.444	53.93
592.642	-23.89
592.84	4.78
593.038	68.27
593.237	-91.48
593.435	10.92
593.633	119.46
593.832	-126.29
594.03	0.68
594.228	-27.99
594.426	-9.56
594.624	92.84
594.823	-38.23
595.021	39.59
595.219	-27.99
595.417	80.55
595.615	25.26
595.813	29.35
596.012	2.73
596.21	72.36
596.408	-5.46
596.606	-23.89
596.804	72.36
597.002	-7.51
597.2	31.4
597.398	17.07
597.596	117.42
597.794	68.27
597.992	78.51
598.19	37.55
598.388	119.46
598.586	49.83
598.784	43.69
598.982	64.17
599.18	164.52
599.378	92.84
599.576	58.03
599.774	60.07
599.972	25.26
600.17	55.98
600.368	66.22
600.565	25.26
600.763	68.27
600.961	64.17
601.159	66.22
601.357	-9.56
601.555	84.65
601.752	82.6
601.95	19.11
602.148	0.68
602.346	-11.61
602.544	195.24
602.741	-40.28
602.939	-17.75
603.137	-48.47
603.334	-50.52
603.532	23.21
603.73	4.78
603.927	92.84
604.125	70.31
604.323	-107.86
604.52	41.64
604.718	41.64
604.916	37.55
605.113	-52.56
605.311	58.03
605.508	39.59
605.706	115.37
605.904	109.22
606.101	-75.09
606.299	55.98
606.496	2.73
606.694	4.78
606.891	47.79
607.089	-11.61
607.286	-64.85
607.484	62.12
607.681	4.78
607.879	144.04
608.076	-56.66
608.273	33.45
608.471	68.27
608.668	-50.52
608.866	-23.89
609.063	-85.33
609.26	-120.15
609.458	-130.39
609.655	105.13
609.852	-48.47
610.05	58.03
610.247	29.35
610.444	41.64
610.642	25.26
610.839	-17.75
611.036	33.45
611.233	72.36
611.431	23.21
611.628	29.35
611.825	-1.37
612.022	-36.18
612.22	43.69
612.417	8.87
612.614	-46.42
612.811	64.17
613.008	88.75
613.205	-36.18
613.402	-32.08
613.6	62.12
613.797	53.93
613.994	-124.24
614.191	45.74
614.388	68.27
614.585	-32.08
614.782	66.22
614.979	166.57
615.176	-91.48
615.373	-1.37
615.57	125.61
615.767	80.55
615.964	86.7
616.161	-109.91
616.358	-3.41
616.555	-13.65
616.752	-19.8
616.949	117.42
617.146	39.59
617.343	31.4
617.539	109.22
617.736	21.16
617.933	-40.28
618.13	86.7
618.327	92.84
618.524	-40.28
618.721	-62.8
618.917	66.22
619.114	0.68
619.311	12.97
619.508	-25.94
619.704	146.09
619.901	17.07
620.098	4.78
620.295	66.22
620.491	-79.19
620.688	8.87
620.885	-5.46
621.081	0.68
621.278	15.02
621.475	8.87
621.671	-23.89
621.868	-56.66
622.065	-58.71
622.261	-7.51
622.458	-11.61
622.655	92.84
622.851	0.68
623.048	-40.28
623.244	-40.28
623.441	62.12
623.637	119.46
623.834	-62.8
624.03	-5.46
624.227	76.46
624.423	53.93
624.62	72.36
624.816	115.37
625.013	178.86
625.209	-17.75
625.406	-73.04
625.602	-85.33
625.798	70.31
625.995	-54.61
626.191	6.83
626.388	39.59
626.584	148.14
626.78	-95.57
626.977	23.21
627.173	-13.65
627.369	119.46
627.566	94.89
627.762	-25.94
627.958	21.16
628.154	-5.46
628.351	-5.46
628.547	-38.23
628.743	-19.8
628.939	78.51
629.136	-27.99
629.332	70.31
629.528	72.36
629.724	53.93
629.92	74.41
630.116	94.89
630.313	-25.94
630.509	17.07
630.705	158.38
630.901	29.35
631.097	-13.65
631.293	23.21
631.489	-17.75
631.685	-25.94
631.881	10.92
632.077	92.84
632.273	-23.89
632.469	29.35
632.665	70.31
632.861	-46.42
633.057	-21.85
633.253	115.37
633.449	8.87
633.645	-122.2
633.841	125.61
634.037	-23.89
634.233	-30.04
634.429	150.18
634.625	-17.75
634.821	111.27
635.017	62.12
635.212	-91.48
635.408	-15.7
635.604	21.16
635.8	82.6
635.996	31.4
636.191	141.99
636.387	72.36
636.583	-128.34
636.779	33.45
636.975	45.74
637.17	-52.56
637.366	88.75
637.562	-27.99
637.757	-38.23
637.953	-13.65
638.149	-34.13
638.345	62.12
638.54	39.59
638.736	-7.51
638.931	-9.56
639.127	15.02
639.323	144.04
639.518	60.07
639.714	-27.99
639.909	-15.7
640.105	12.97
640.301	103.08
640.496	74.41
640.692	88.75
640.887	-9.56
641.083	47.79
641.278	41.64
641.474	64.17
641.669	-68.95
641.865	84.65
642.06	41.64
642.256	-73.04
642.451	23.21
642.646	-52.56
642.842	2.73
643.037	64.17
643.233	109.22
643.428	2.73
643.623	-54.61
643.819	-58.71
644.014	45.74
644.209	12.97
644.405	12.97
644.6	90.79
644.795	-23.89
644.99	29.35
645.186	84.65
645.381	-1.37
645.576	-15.7
645.771	76.46
645.967	10.92
646.162	-5.46
646.357	74.41
646.552	158.38
646.747	53.93
646.943	35.5
647.138	82.6
647.333	76.46
647.528	-308.56
647.723	47.79
647.918	10.92
648.113	94.89
648.308	62.12
648.504	10.92
648.699	35.5
648.894	4.78
649.089	8.87
649.284	-77.14
649.479	-15.7
649.674	4.78
649.869	35.5
650.064	-66.9
650.259	94.89
650.454	21.16
650.649	29.35
650.844	0.68
651.038	-5.46
651.233	55.98
651.428	144.04
651.623	62.12
651.818	60.07
652.013	43.69
652.208	47.79
652.403	2.73
652.597	70.31
652.792	-81.24
652.987	246.44
653.182	66.22
653.377	-46.42
653.571	55.98
653.766	-9.56
653.961	2.73
654.156	107.18
654.35	-46.42
654.545	-17.75
654.74	58.03
654.935	68.27
655.129	58.03
655.324	98.99
655.519	37.55
655.713	70.31
655.908	8.87
656.102	43.69
656.297	21.16
656.492	127.66
656.686	0.68
656.881	82.6
657.075	76.46
657.27	47.79
657.464	-77.14
657.659	129.7
657.854	-93.52
658.048	72.36
658.243	2.73
658.437	58.03
658.631	-85.33
658.826	154.28
659.02	-11.61
659.215	115.37
659.409	-75.09
659.604	8.87
659.798	31.4
659.992	29.35
660.187	123.56
660.381	17.07
660.576	-13.65
660.77	45.74
660.964	-25.94
661.159	45.74
661.353	86.7
661.547	-7.51
661.742	156.33
661.936	55.98
662.13	35.5
662.324	-46.42
662.519	-9.56
662.713	-27.99
662.907	96.94
663.101	133.8
663.295	68.27
663.49	-27.99
663.684	62.12
663.878	-13.65
664.072	70.31
664.266	94.89
664.46	-15.7
664.654	78.51
664.849	29.35
665.043	98.99
665.237	39.59
665.431	23.21
665.625	35.5
665.819	62.12
666.013	21.16
666.207	2.73
666.401	94.89
666.595	51.88
666.789	-36.18
666.983	41.64
667.177	107.18
667.371	23.21
667.565	78.51
667.759	0.68
667.953	43.69
668.147	37.55
668.34	66.22
668.534	4.78
668.728	-17.75
668.922	-73.04
669.116	35.5
669.31	119.46
669.504	-68.95
669.697	35.5
669.891	64.17
670.085	96.94
670.279	111.27
670.473	-11.61
670.666	68.27
670.86	98.99
671.054	84.65
671.248	45.74
671.441	-3.41
671.635	180.9
671.829	0.68
672.022	45.74
672.216	10.92
672.41	12.97
672.603	-46.42
672.797	-7.51
672.99	105.13
673.184	133.8
673.378	25.26
673.571	111.27
673.765	111.27
673.958	27.31
674.152	84.65
674.345	96.94
674.539	-17.75
674.733	-9.56
674.926	62.12
675.12	158.38
675.313	35.5
675.506	-17.75
675.7	72.36
675.893	41.64
676.087	58.03
676.28	58.03
676.474	162.47
676.667	45.74
676.86	-58.71
677.054	72.36
677.247	-64.85
677.441	76.46
677.634	-32.08
677.827	0.68
678.02	101.03
678.214	64.17
678.407	-36.18
678.6	10.92
678.794	92.84
678.987	62.12
679.18	31.4
679.373	25.26
679.567	-11.61
679.76	125.61
679.953	0.68
680.146	-60.76
680.339	88.75
680.533	92.84
680.726	-15.7
680.919	101.03
681.112	41.64
681.305	-36.18
681.498	-36.18
681.691	-27.99
681.884	60.07
682.077	43.69
682.271	-60.76
682.464	33.45
682.657	41.64
682.85	-5.46
683.043	90.79
683.236	78.51
683.429	-23.89
683.622	-99.67
683.815	8.87
684.008	-17.75
684.201	21.16
684.393	80.55
684.586	4.78
684.779	74.41
684.972	74.41
685.165	6.83
685.358	-40.28
685.551	43.69
685.744	58.03
685.937	41.64
686.129	96.94
686.322	78.51
686.515	-13.65
686.708	-3.41
686.901	-27.99
687.093	113.32
687.286	86.7
687.479	-42.32
687.672	10.92
687.864	-3.41
688.057	47.79
688.25	-40.28
688.442	127.66
688.635	60.07
688.828	23.21
689.02	94.89
689.213	23.21
689.406	4.78
689.598	-36.18
689.791	10.92
689.984	31.4
690.176	0.68
690.369	-109.91
690.561	51.88
690.754	10.92
690.946	84.65
691.139	-7.51
691.331	55.98
691.524	-58.71
691.716	31.4
691.909	-34.13
692.101	-1.37
692.294	4.78
692.486	-9.56
692.679	60.07
692.871	-85.33
693.063	-62.8
693.256	105.13
693.448	47.79
693.641	23.21
693.833	39.59
694.025	23.21
694.218	66.22
694.41	107.18
694.602	80.55
694.795	131.75
694.987	-32.08
695.179	113.32
695.372	-66.9
695.564	-19.8
695.756	4.78
695.948	35.5
696.14	58.03
696.333	15.02
696.525	-66.9
696.717	115.37
696.909	-13.65
697.101	80.55
697.294	45.74
697.486	115.37
697.678	74.41
697.87	29.35
698.062	-30.04
698.254	39.59
698.446	-17.75
698.638	33.45
698.83	96.94
699.022	58.03
699.215	-83.28
699.407	129.7
699.599	-36.18
699.791	49.83
699.983	98.99
700.175	133.8
700.367	78.51
700.558	127.66
700.75	-25.94
700.942	129.7
701.134	31.4
701.326	43.69
701.518	-58.71
701.71	12.97
701.902	-21.85
702.094	55.98
702.286	-97.62
702.477	92.84
702.669	45.74
702.861	25.26
703.053	70.31
703.245	66.22
703.436	78.51
703.628	-1.37
703.82	-9.56
704.012	70.31
704.203	-64.85
704.395	17.07
704.587	-11.61
704.779	119.46
704.97	-3.41
705.162	-9.56
705.354	4.78
705.545	-27.99
705.737	-3.41
705.929	33.45
706.12	-48.47
706.312	15.02
706.503	-79.19
706.695	47.79
706.887	66.22
707.078	-58.71
707.27	-9.56
707.461	-81.24
707.653	76.46
707.844	8.87
708.036	-21.85
708.227	117.42
708.419	-87.38
708.61	-32.08
708.802	21.16
708.993	98.99
709.185	58.03
709.376	64.17
709.567	66.22
709.759	8.87
709.95	31.4
710.141	133.8
710.333	49.83
710.524	23.21
710.716	-81.24
710.907	47.79
711.098	-54.61
711.289	131.75
711.481	6.83
711.672	45.74
711.863	33.45
712.055	103.08
712.246	33.45
712.437	0.68
712.628	-36.18
712.82	-13.65
713.011	21.16
713.202	76.46
713.393	-105.81
713.584	49.83
713.775	6.83
713.967	101.03
714.158	84.65
714.349	31.4
714.54	-38.23
714.731	-1.37
714.922	37.55
715.113	88.75
715.304	64.17
715.495	82.6
715.686	-15.7
715.877	78.51
716.068	72.36
716.259	-42.32
716.45	-30.04
716.641	39.59
716.832	39.59
717.023	74.41
717.214	-11.61
717.405	17.07
717.596	27.31
717.787	45.74
717.978	47.79
718.169	33.45
718.36	98.99
718.55	45.74
718.741	-93.52
718.932	80.55
719.123	45.74
719.314	45.74
719.505	12.97
719.695	58.03
719.886	27.31
720.077	-27.99
720.268	45.74
720.458	62.12
720.649	103.08
720.84	107.18
721.031	64.17
721.221	-11.61
721.412	39.59
721.603	25.26
721.793	-9.56
721.984	98.99
722.175	135.85
722.365	4.78
722.556	84.65
722.746	131.75
722.937	58.03
723.128	4.78
723.318	12.97
723.509	90.79
723.699	-11.61
723.89	53.93
724.08	33.45
724.271	86.7
724.461	-44.37
724.652	55.98
724.842	29.35
725.033	-36.18
725.223	131.75
725.414	15.02
725.604	88.75
725.794	39.59
725.985	-1.37
726.175	55.98
726.366	47.79
726.556	27.31
726.746	103.08
726.937	39.59
727.127	-27.99
727.317	4.78
727.508	49.83
727.698	-46.42
727.888	45.74
728.079	96.94
728.269	-95.57
728.459	-66.9
728.649	-91.48
728.84	4.78
729.03	19.11
729.22	-48.47
729.41	170.66
729.6	191.14
729.791	-38.23
729.981	-17.75
730.171	53.93
730.361	35.5
730.551	80.55
730.741	129.7
730.931	76.46
731.121	43.69
731.311	131.75
731.502	10.92
731.692	6.83
731.882	49.83
732.072	29.35
732.262	29.35
732.452	-36.18
732.642	111.27
732.832	66.22
733.022	39.59
733.212	94.89
733.402	-15.7
733.591	2.73
733.781	-13.65
733.971	37.55
734.161	64.17
734.351	37.55
734.541	94.89
734.731	113.32
734.921	31.4
735.111	-27.99
735.3	8.87
735.49	68.27
735.68	39.59
735.87	0.68
736.06	-25.94
736.249	49.83
736.439	101.03
736.629	-54.61
736.819	17.07
737.008	66.22
737.198	37.55
737.388	96.94
737.577	66.22
737.767	117.42
737.957	-23.89
738.146	27.31
738.336	2.73
738.526	35.5
738.715	8.87
738.905	33.45
739.094	74.41
739.284	47.79
739.474	-73.04
739.663	33.45
739.853	107.18
740.042	47.79
740.232	2.73
740.421	82.6
740.611	53.93
740.8	78.51
740.99	78.51
741.179	27.31
741.369	-105.81
741.558	90.79
741.748	4.78
741.937	4.78
742.126	23.21
742.316	8.87
742.505	47.79
742.695	115.37
742.884	-64.85
743.073	58.03
743.263	19.11
743.452	15.02
743.641	127.66
743.831	-36.18
744.02	90.79
744.209	27.31
744.398	139.94
744.588	8.87
744.777	-23.89
744.966	-19.8
745.155	164.52
745.345	31.4
745.534	125.61
745.723	103.08
745.912	10.92
746.101	10.92
746.29	27.31
746.48	53.93
746.669	84.65
746.858	6.83
747.047	-68.95
747.236	-83.28
747.425	27.31
747.614	51.88
747.803	131.75
747.992	103.08
748.181	76.46
748.37	88.75
748.559	55.98
748.748	-13.65
748.937	-48.47
749.126	60.07
749.315	119.46
749.504	-1.37
749.693	27.31
749.882	47.79
750.071	-71
750.26	55.98
750.449	-5.46
750.638	94.89
750.826	168.62
751.015	15.02
751.204	2.73
751.393	78.51
751.582	19.11
751.771	-13.65
751.959	-71
752.148	-44.37
752.337	45.74
752.526	10.92
752.714	-32.08
752.903	-73.04
753.092	39.59
753.281	84.65
753.469	45.74
753.658	33.45
753.847	-5.46
754.035	-1.37
754.224	-58.71
754.413	-46.42
754.601	-23.89
754.79	107.18
754.979	35.5
755.167	-60.76
755.356	-25.94
755.544	23.21
755.733	94.89
755.921	33.45
756.11	4.78
756.298	-17.75
756.487	-11.61
756.675	131.75
756.864	62.12
757.052	-17.75
757.241	6.83
757.429	107.18
757.618	33.45
757.806	170.66
757.995	53.93
758.183	101.03
758.371	-3.41
758.56	-5.46
758.748	6.83
758.937	-23.89
759.125	74.41
759.313	23.21
759.502	64.17
759.69	23.21
759.878	-68.95
760.066	29.35
760.255	82.6
760.443	31.4
760.631	119.46
760.819	33.45
761.008	17.07
761.196	170.66
761.384	51.88
761.572	105.13
761.761	2.73
761.949	39.59
762.137	137.9
762.325	-32.08
762.513	39.59
762.701	53.93
762.889	37.55
763.077	43.69
763.266	4.78
763.454	113.32
763.642	68.27
763.83	80.55
764.018	21.16
764.206	-66.9
764.394	135.85
764.582	39.59
764.77	-32.08
764.958	98.99
765.146	-48.47
765.334	-5.46
765.522	72.36
765.71	43.69
765.898	-56.66
766.085	170.66
766.273	43.69
766.461	113.32
766.649	-17.75
766.837	70.31
767.025	-38.23
767.213	-9.56
767.401	29.35
767.588	-46.42
767.776	82.6
767.964	10.92
768.152	66.22
768.339	47.79
768.527	-68.95
768.715	-25.94
768.903	31.4
769.09	19.11
769.278	0.68
769.466	96.94
769.654	-17.75
769.841	74.41
770.029	27.31
770.217	51.88
770.404	17.07
770.592	96.94
770.779	-15.7
770.967	10.92
771.155	84.65
771.342	33.45
771.53	66.22
771.717	4.78
771.905	86.7
772.092	-50.52
772.28	-71
772.467	15.02
772.655	74.41
772.842	-17.75
773.03	154.28
773.217	49.83
773.405	129.7
773.592	43.69
773.78	-46.42
773.967	-1.37
774.154	37.55
774.342	33.45
774.529	103.08
774.717	-77.14
774.904	-13.65
775.091	-23.89
775.279	101.03
775.466	58.03
775.653	-9.56
775.841	113.32
776.028	131.75
776.215	19.11
776.402	62.12
776.59	25.26
776.777	27.31
776.964	-60.76
777.151	-73.04
777.338	92.84
777.526	129.7
777.713	-17.75
777.9	-5.46
778.087	-23.89
778.274	0.68
778.461	68.27
778.649	60.07
778.836	43.69
779.023	33.45
779.21	33.45
779.397	96.94
779.584	98.99
779.771	74.41
779.958	25.26
780.145	76.46
780.332	119.46
780.519	-32.08
780.706	2.73
780.893	101.03
781.08	-1.37
781.267	64.17
781.454	66.22
781.641	23.21
781.828	35.5
782.015	68.27
782.202	90.79
782.388	172.71
782.575	-19.8
782.762	-1.37
782.949	60.07
783.136	-15.7
783.323	55.98
783.509	31.4
783.696	107.18
783.883	-15.7
784.07	-34.13
784.257	76.46
784.443	66.22
784.63	-11.61
784.817	10.92
785.004	-30.04
785.19	76.46
785.377	-7.51
785.564	43.69
785.75	90.79
785.937	31.4
786.124	96.94
786.31	41.64
786.497	25.26
786.683	115.37
786.87	41.64
787.057	127.66
787.243	31.4
787.43	72.36
787.616	125.61
787.803	-1.37
787.989	68.27
788.176	-36.18
788.362	45.74
788.549	21.16
788.735	209.58
788.922	131.75
789.108	12.97
789.295	19.11
789.481	53.93
789.668	-5.46
789.854	135.85
790.04	76.46
790.227	2.73
790.413	0.68
790.599	33.45
790.786	-34.13
790.972	35.5
791.158	21.16
791.345	4.78
791.531	115.37
791.717	94.89
791.904	8.87
792.09	146.09
792.276	80.55
792.462	72.36
792.649	-19.8
792.835	29.35
793.021	53.93
793.207	70.31
793.393	25.26
793.58	70.31
793.766	62.12
793.952	123.56
794.138	74.41
794.324	76.46
794.51	12.97
794.696	78.51
794.882	-23.89
795.069	76.46
795.255	115.37
795.441	68.27
795.627	117.42
795.813	-1.37
795.999	90.79
796.185	10.92
796.371	39.59
796.557	92.84
796.743	78.51
796.929	6.83
797.115	58.03
797.3	53.93
797.486	180.9
797.672	156.33
797.858	37.55
798.044	-34.13
798.23	-30.04
798.416	101.03
798.602	15.02
798.788	45.74
798.973	-52.56
799.159	84.65
799.345	-1.37
799.531	0.68
799.717	2.73
799.902	35.5
800.088	-58.71
800.274	133.8
800.46	-56.66
800.645	-42.32
800.831	-13.65
801.017	-36.18
801.202	113.32
801.388	68.27
801.574	0.68
801.759	70.31
801.945	-62.8
802.131	135.85
802.316	76.46
802.502	35.5
802.687	47.79
802.873	-36.18
803.058	31.4
803.244	33.45
803.43	49.83
803.615	10.92
803.801	-73.04
803.986	103.08
804.172	94.89
804.357	19.11
804.543	-5.46
804.728	-11.61
804.913	23.21
805.099	35.5
805.284	-1.37
805.47	80.55
805.655	62.12
805.84	76.46
806.026	90.79
806.211	39.59
806.397	92.84
806.582	-13.65
806.767	6.83
806.953	2.73
807.138	80.55
807.323	133.8
807.508	19.11
807.694	-56.66
807.879	47.79
808.064	-1.37
808.249	92.84
808.435	49.83
808.62	66.22
808.805	29.35
808.99	-25.94
809.175	-34.13
809.361	37.55
809.546	6.83
809.731	-34.13
809.916	47.79
810.101	47.79
810.286	-27.99
810.471	94.89
810.656	55.98
810.841	39.59
811.026	96.94
811.211	23.21
811.396	58.03
811.581	62.12
811.766	-91.48
811.951	35.5
812.136	-3.41
812.321	107.18
812.506	111.27
812.691	49.83
812.876	-83.28
813.061	27.31
813.246	103.08
813.431	35.5
813.616	25.26
813.801	55.98
813.986	101.03
814.17	74.41
814.355	33.45
814.54	35.5
814.725	70.31
814.91	-93.52
815.094	2.73
815.279	8.87
815.464	182.95
815.649	84.65
815.833	12.97
816.018	86.7
816.203	27.31
816.388	-62.8
816.572	84.65
816.757	10.92
816.942	21.16
817.126	-32.08
817.311	-7.51
817.496	84.65
817.68	119.46
817.865	51.88
818.049	37.55
818.234	-52.56
818.419	70.31
818.603	29.35
818.788	-46.42
818.972	76.46
819.157	62.12
819.341	-7.51
819.526	96.94
819.71	39.59
819.895	-5.46
820.079	80.55
820.264	-9.56
820.448	-1.37
820.633	-87.38
820.817	64.17
821.001	64.17
821.186	60.07
821.37	6.83
821.554	-58.71
821.739	-3.41
821.923	17.07
822.108	-42.32
822.292	76.46
822.476	45.74
822.66	-15.7
822.845	72.36
823.029	98.99
823.213	62.12
823.398	-32.08
823.582	78.51
823.766	105.13
823.95	0.68
824.134	47.79
824.319	-13.65
824.503	-103.76
824.687	70.31
824.871	45.74
825.055	74.41
825.239	33.45
825.423	-5.46
825.608	-66.9
825.792	12.97
825.976	15.02
826.16	80.55
826.344	-38.23
826.528	10.92
826.712	43.69
826.896	-83.28
827.08	107.18
827.264	58.03
827.448	113.32
827.632	-73.04
827.816	60.07
828	17.07
828.184	-21.85
828.368	88.75
828.552	131.75
828.736	92.84
828.919	-77.14
829.103	47.79
829.287	86.7
829.471	96.94
829.655	-60.76
829.839	37.55
830.023	107.18
830.206	39.59
830.39	8.87
830.574	-27.99
830.758	-89.43
830.941	105.13
831.125	-15.7
831.309	23.21
831.493	-40.28
831.676	-9.56
831.86	-34.13
832.044	101.03
832.227	105.13
832.411	49.83
832.595	125.61
832.778	-40.28
832.962	94.89
833.146	27.31
833.329	25.26
833.513	10.92
833.696	10.92
833.88	-36.18
834.064	17.07
834.247	88.75
834.431	96.94
834.614	29.35
834.798	0.68
834.981	39.59
835.165	15.02
835.348	-7.51
835.532	111.27
835.715	-54.61
835.898	15.02
836.082	119.46
836.265	-77.14
836.449	35.5
836.632	6.83
836.815	78.51
836.999	131.75
837.182	8.87
837.365	37.55
837.549	6.83
837.732	70.31
837.915	103.08
838.099	60.07
838.282	27.31
838.465	66.22
838.648	4.78
838.832	35.5
839.015	-42.32
839.198	-32.08
839.381	47.79
839.565	23.21
839.748	92.84
839.931	31.4
840.114	33.45
840.297	19.11
840.48	-38.23
840.663	-9.56
840.847	94.89
841.03	82.6
841.213	-48.47
841.396	27.31
841.579	86.7
841.762	17.07
841.945	105.13
842.128	-75.09
842.311	25.26
842.494	213.67
842.677	33.45
842.86	-1.37
843.043	25.26
843.226	154.28
843.409	-3.41
843.592	-15.7
843.775	137.9
843.958	45.74
844.141	-30.04
844.323	-40.28
844.506	88.75
844.689	47.79
844.872	-11.61
845.055	-107.86
845.238	127.66
845.42	-27.99
845.603	53.93
845.786	82.6
845.969	58.03
846.152	49.83
846.334	39.59
846.517	19.11
846.7	49.83
846.883	86.7
847.065	2.73
847.248	-32.08
847.431	23.21
847.613	84.65
847.796	96.94
847.979	45.74
848.161	39.59
848.344	15.02
848.526	0.68
848.709	0.68
848.892	45.74
849.074	15.02
849.257	-23.89
849.439	105.13
849.622	68.27
849.804	41.64
849.987	35.5
850.169	47.79
850.352	58.03
850.534	0.68
850.717	23.21
850.899	92.84
851.082	72.36
851.264	47.79
851.446	51.88
851.629	-79.19
851.811	47.79
851.994	15.02
852.176	76.46
852.358	-5.46
852.541	82.6
852.723	-48.47
852.905	66.22
853.088	2.73
853.27	-21.85
853.452	19.11
853.635	4.78
853.817	98.99
853.999	80.55
854.181	21.16
854.363	49.83
854.546	76.46
854.728	76.46
854.91	129.7
855.092	111.27
855.274	27.31
855.457	8.87
855.639	33.45
855.821	-11.61
856.003	90.79
856.185	51.88
856.367	-97.62
856.549	33.45
856.731	105.13
856.913	115.37
857.095	25.26
857.277	31.4
857.459	62.12
857.641	53.93
857.823	-54.61
858.005	-17.75
858.187	-9.56
858.369	58.03
858.551	-71
858.733	2.73
858.915	119.46
859.097	23.21
859.279	-56.66
859.461	15.02
859.643	88.75
859.824	70.31
860.006	-13.65
860.188	51.88
860.37	49.83
860.552	-56.66
860.734	-60.76
860.915	-44.37
861.097	-83.28
861.279	117.42
861.461	90.79
861.642	107.18
861.824	-56.66
862.006	115.37
862.188	21.16
862.369	135.85
862.551	133.8
862.733	-58.71
862.914	88.75
863.096	64.17
863.278	-34.13
863.459	137.9
863.641	-68.95
863.822	-48.47
864.004	23.21
864.185	72.36
864.367	137.9
864.549	-38.23
864.73	76.46
864.912	96.94
865.093	-32.08
865.275	-62.8
865.456	45.74
865.638	150.18
865.819	162.47
866.001	-1.37
866.182	17.07
866.363	113.32
866.545	8.87
866.726	41.64
866.908	-66.9
867.089	68.27
867.27	25.26
867.452	74.41
867.633	2.73
867.814	101.03
867.996	66.22
868.177	19.11
868.358	25.26
868.54	43.69
868.721	-38.23
868.902	207.53
869.083	-27.99
869.265	121.51
869.446	49.83
869.627	-48.47
869.808	33.45
869.989	25.26
870.171	49.83
870.352	47.79
870.533	90.79
870.714	72.36
870.895	37.55
871.076	58.03
871.257	64.17
871.438	-3.41
871.619	47.79
871.801	45.74
871.982	49.83
872.163	96.94
872.344	-25.94
872.525	-1.37
872.706	49.83
872.887	88.75
873.068	41.64
873.249	78.51
873.43	-11.61
873.61	-3.41
873.791	53.93
873.972	41.64
874.153	47.79
874.334	86.7
874.515	17.07
874.696	-38.23
874.877	41.64
875.058	19.11
875.238	60.07
875.419	-30.04
875.6	-11.61
875.781	-52.56
875.962	72.36
876.142	6.83
876.323	88.75
876.504	-91.48
876.685	-44.37
876.865	211.62
877.046	96.94
877.227	72.36
877.407	-1.37
877.588	82.6
877.769	182.95
877.949	78.51
878.13	-118.1
878.311	0.68
878.491	45.74
878.672	51.88
878.853	33.45
879.033	152.23
879.214	-101.72
879.394	-30.04
879.575	70.31
879.755	31.4
879.936	-40.28
880.116	-25.94
880.297	-23.89
880.477	-44.37
880.658	-58.71
880.838	78.51
881.019	-64.85
881.199	6.83
881.38	-52.56
881.56	64.17
881.74	49.83
881.921	96.94
882.101	109.22
882.281	41.64
882.462	-64.85
882.642	76.46
882.822	-99.67
883.003	-58.71
883.183	55.98
883.363	19.11
883.544	21.16
883.724	-62.8
883.904	21.16
884.084	51.88
884.265	-11.61
884.445	23.21
884.625	53.93
884.805	113.32
884.985	62.12
885.166	-3.41
885.346	45.74
885.526	88.75
885.706	121.51
885.886	60.07
886.066	60.07
886.246	-36.18
886.426	19.11
886.606	15.02
886.787	-25.94
886.967	103.08
887.147	119.46
887.327	72.36
887.507	-85.33
887.687	131.75
887.867	-68.95
888.047	115.37
888.227	117.42
888.406	90.79
888.586	-1.37
888.766	-30.04
888.946	148.14
889.126	45.74
889.306	43.69
889.486	23.21
889.666	-27.99
889.846	23.21
890.025	66.22
890.205	21.16
890.385	25.26
890.565	0.68
890.745	-1.37
890.924	150.18
891.104	21.16
891.284	107.18
891.464	86.7
891.643	8.87
891.823	-13.65
892.003	117.42
892.183	51.88
892.362	-30.04
892.542	15.02
892.722	64.17
892.901	21.16
893.081	66.22
893.26	64.17
893.44	-32.08
893.62	144.04
893.799	53.93
893.979	51.88
894.158	-58.71
894.338	45.74
894.517	4.78
894.697	49.83
894.877	-3.41
895.056	58.03
895.236	-40.28
895.415	-46.42
895.594	137.9
895.774	-42.32
895.953	41.64
896.133	-13.65
896.312	125.61
896.492	35.5
896.671	-23.89
896.85	8.87
897.03	94.89
897.209	111.27
897.388	125.61
897.568	49.83
897.747	-19.8
897.926	19.11
898.106	19.11
898.285	23.21
898.464	107.18
898.643	-25.94
898.823	27.31
899.002	-122.2
899.181	53.93
899.36	55.98
899.54	76.46
899.719	-54.61
899.898	84.65
900.077	23.21
900.256	-23.89
900.435	74.41
900.614	-83.28
900.794	19.11
900.973	70.31
901.152	43.69
901.331	141.99
901.51	-30.04
901.689	72.36
901.868	125.61
902.047	103.08
902.226	21.16
902.405	4.78
902.584	64.17
902.763	4.78
902.942	123.56
903.121	27.31
903.3	-44.37
903.479	-9.56
903.658	135.85
903.837	-54.61
904.015	62.12
904.194	10.92
904.373	62.12
904.552	-64.85
904.731	-21.85
904.91	29.35
905.089	45.74
905.267	68.27
905.446	6.83
905.625	25.26
905.804	35.5
905.982	47.79
906.161	-44.37
906.34	-107.86
906.519	0.68
906.697	49.83
906.876	37.55
907.055	66.22
907.233	68.27
907.412	35.5
907.591	27.31
907.769	62.12
907.948	25.26
908.127	70.31
908.305	66.22
908.484	37.55
908.662	51.88
908.841	129.7
909.019	-3.41
909.198	-44.37
909.377	27.31
909.555	-13.65
909.734	135.85
909.912	64.17
910.09	-9.56
910.269	-30.04
910.447	121.51
910.626	152.23
910.804	82.6
910.983	51.88
911.161	-44.37
911.339	31.4
911.518	29.35
911.696	12.97
911.875	-17.75
912.053	96.94
912.231	-75.09
912.41	121.51
912.588	-27.99
912.766	-21.85
912.944	-13.65
913.123	-17.75
913.301	0.68
913.479	47.79
913.657	-9.56
913.836	189.1
914.014	10.92
914.192	-11.61
914.37	51.88
914.548	-40.28
914.727	96.94
914.905	86.7
915.083	6.83
915.261	148.14
915.439	74.41
915.617	84.65
915.795	-19.8
915.973	-107.86
916.151	-5.46
916.329	70.31
916.508	23.21
916.686	-64.85
916.864	37.55
917.042	-13.65
917.22	123.56
917.398	101.03
917.575	64.17
917.753	19.11
917.931	19.11
918.109	-36.18
918.287	-36.18
918.465	-3.41
918.643	98.99
918.821	-52.56
918.999	49.83
919.177	12.97
919.354	144.04
919.532	119.46
919.71	4.78
919.888	41.64
920.066	58.03
920.243	23.21
920.421	80.55
920.599	64.17
920.777	37.55
920.954	70.31
921.132	103.08
921.31	131.75
921.488	82.6
921.665	76.46
921.843	62.12
922.021	2.73
922.198	-23.89
922.376	33.45
922.553	76.46
922.731	113.32
922.909	43.69
923.086	-62.8
923.264	66.22
923.441	103.08
923.619	15.02
923.796	-56.66
923.974	-27.99
924.152	-68.95
924.329	8.87
924.507	-19.8
924.684	27.31
924.861	101.03
925.039	105.13
925.216	27.31
925.394	17.07
925.571	94.89
925.749	92.84
925.926	0.68
926.103	2.73
926.281	-11.61
926.458	17.07
926.635	10.92
926.813	64.17
926.99	84.65
927.167	58.03
927.345	12.97
927.522	-7.51
927.699	82.6
927.876	121.51
928.054	-46.42
928.231	-93.52
928.408	15.02
928.585	-79.19
928.763	-85.33
928.94	92.84
929.117	119.46
929.294	74.41
929.471	2.73
929.648	-34.13
929.825	76.46
930.003	68.27
930.18	8.87
930.357	27.31
930.534	-11.61
930.711	156.33
930.888	121.51
931.065	27.31
931.242	-77.14
931.419	37.55
931.596	-11.61
931.773	-32.08
931.95	43.69
932.127	2.73
932.304	-11.61
932.481	62.12
932.658	-19.8
932.835	60.07
933.011	37.55
933.188	90.79
933.365	72.36
933.542	17.07
933.719	80.55
933.896	70.31
934.073	-40.28
934.249	51.88
934.426	64.17
934.603	-77.14
934.78	23.21
934.957	15.02
935.133	135.85
935.31	70.31
935.487	0.68
935.664	58.03
935.84	78.51
936.017	35.5
936.194	72.36
936.37	-46.42
936.547	-38.23
936.724	45.74
936.9	53.93
937.077	-23.89
937.253	-17.75
937.43	-40.28
937.607	41.64
937.783	-17.75
937.96	29.35
938.136	105.13
938.313	117.42
938.489	25.26
938.666	94.89
938.842	109.22
939.019	23.21
939.195	0.68
939.372	146.09
939.548	215.72
939.725	76.46
939.901	31.4
940.077	31.4
940.254	39.59
940.43	-34.13
940.607	-19.8
940.783	21.16
940.959	66.22
941.136	88.75
941.312	23.21
941.488	47.79
941.665	-1.37
941.841	94.89
942.017	123.56
942.193	84.65
942.37	21.16
942.546	25.26
942.722	86.7
942.898	-3.41
943.074	-7.51
943.251	150.18
943.427	-21.85
943.603	117.42
943.779	8.87
943.955	121.51
944.131	125.61
944.308	88.75
944.484	113.32
944.66	84.65
944.836	17.07
945.012	2.73
945.188	-11.61
945.364	121.51
945.54	68.27
945.716	-73.04
945.892	68.27
946.068	47.79
946.244	86.7
946.42	62.12
946.596	8.87
946.772	72.36
946.948	-85.33
947.124	-27.99
947.3	64.17
947.475	213.67
947.651	31.4
947.827	53.93
948.003	-64.85
948.179	82.6
948.355	-46.42
948.531	-19.8
948.706	60.07
948.882	92.84
949.058	-89.43
949.234	47.79
949.409	-11.61
949.585	-95.57
949.761	19.11
949.937	-9.56
950.112	23.21
950.288	119.46
950.464	68.27
950.639	64.17
950.815	53.93
950.991	78.51
951.166	80.55
951.342	74.41
951.518	144.04
951.693	25.26
951.869	-34.13
952.044	113.32
952.22	127.66
952.395	-17.75
952.571	74.41
952.747	-3.41
952.922	-3.41
953.098	60.07
953.273	23.21
953.448	6.83
953.624	4.78
953.799	37.55
953.975	15.02
954.15	15.02
954.326	45.74
954.501	2.73
954.676	-19.8
954.852	35.5
955.027	62.12
955.203	-30.04
955.378	197.29
955.553	127.66
955.729	23.21
955.904	-91.48
956.079	35.5
956.254	123.56
956.43	43.69
956.605	166.57
956.78	-52.56
956.955	123.56
957.131	4.78
957.306	8.87
957.481	41.64
957.656	-15.7
957.831	-13.65
958.007	-60.76
958.182	23.21
958.357	109.22
958.532	10.92
958.707	21.16
958.882	141.99
959.057	10.92
959.232	45.74
959.407	64.17
959.582	107.18
959.757	127.66
959.932	98.99
960.107	31.4
960.282	35.5
960.457	123.56
960.632	-34.13
960.807	58.03
960.982	-21.85
961.157	-54.61
961.332	66.22
961.507	-19.8
961.682	27.31
961.857	25.26
962.032	10.92
962.206	-126.29
962.381	84.65
962.556	37.55
962.731	80.55
962.906	8.87
963.081	68.27
963.255	33.45
963.43	-9.56
963.605	82.6
963.78	-34.13
963.954	-21.85
964.129	109.22
964.304	74.41
964.479	12.97
964.653	0.68
964.828	41.64
965.003	62.12
965.177	-13.65
965.352	-52.56
965.526	41.64
965.701	101.03
965.876	113.32
966.05	-5.46
966.225	92.84
966.399	45.74
966.574	-46.42
966.748	27.31
966.923	41.64
967.098	41.64
967.272	33.45
967.446	21.16
967.621	107.18
967.795	80.55
967.97	-60.76
968.144	25.26
968.319	-23.89
968.493	15.02
968.668	-5.46
968.842	129.7
969.016	92.84
969.191	25.26
969.365	6.83
969.539	-1.37
969.714	23.21
969.888	35.5
970.062	82.6
970.237	53.93
970.411	33.45
970.585	80.55
970.759	23.21
970.934	31.4
971.108	94.89
971.282	33.45
971.456	-32.08
971.63	10.92
971.805	-89.43
971.979	-13.65
972.153	-62.8
972.327	25.26
972.501	39.59
972.675	107.18
972.849	80.55
973.024	117.42
973.198	53.93
973.372	-42.32
973.546	84.65
973.72	35.5
973.894	4.78
974.068	31.4
974.242	33.45
974.416	19.11
974.59	-25.94
974.764	-95.57
974.938	-38.23
975.112	29.35
975.286	66.22
975.46	27.31
975.633	-68.95
975.807	72.36
975.981	43.69
976.155	49.83
976.329	60.07
976.503	58.03
976.677	6.83
976.85	35.5
977.024	-17.75
977.198	19.11
977.372	8.87
977.546	74.41
977.719	-93.52
977.893	45.74
978.067	-15.7
978.241	17.07
978.414	-62.8
978.588	-11.61
978.762	55.98
978.935	27.31
979.109	45.74
979.283	27.31
979.456	103.08
979.63	58.03
979.804	70.31
979.977	-25.94
980.151	-27.99
980.324	29.35
980.498	-15.7
980.671	19.11
980.845	-38.23
981.018	25.26
981.192	-48.47
981.365	113.32
981.539	72.36
981.712	-7.51
981.886	-66.9
982.059	-44.37
982.233	-46.42
982.406	6.83
982.58	74.41
982.753	86.7
982.926	101.03
983.1	76.46
983.273	117.42
983.446	96.94
983.62	6.83
983.793	82.6
983.966	6.83
984.14	23.21
984.313	25.26
984.486	125.61
984.66	-42.32
984.833	64.17
985.006	-85.33
985.179	82.6
985.352	-7.51
985.526	49.83
985.699	-5.46
985.872	68.27
986.045	64.17
986.218	37.55
986.391	0.68
986.565	80.55
986.738	47.79
986.911	-23.89
987.084	23.21
987.257	111.27
987.43	-1.37
987.603	8.87
987.776	92.84
987.949	27.31
988.122	29.35
988.295	-71
988.468	-46.42
988.641	60.07
988.814	23.21
988.987	-3.41
989.16	29.35
989.333	27.31
989.506	66.22
989.679	-42.32
989.852	119.46
990.025	35.5
990.197	92.84
990.37	64.17
990.543	41.64
990.716	-19.8
990.889	131.75
991.062	-60.76
991.234	0.68
991.407	-68.95
991.58	37.55
991.753	-17.75
991.925	58.03
992.098	-68.95
992.271	2.73
992.444	98.99
992.616	-42.32
992.789	72.36
992.962	-1.37
993.134	88.75
993.307	-11.61
993.479	-62.8
993.652	62.12
993.825	33.45
993.997	58.03
994.17	37.55
994.342	37.55
994.515	-44.37
994.688	-17.75
994.86	86.7
995.033	4.78
995.205	107.18
995.378	113.32
995.55	37.55
995.723	-17.75
995.895	88.75
996.067	123.56
996.24	121.51
996.412	90.79
996.585	-32.08
996.757	96.94
996.929	58.03
997.102	15.02
997.274	-36.18
997.447	62.12
997.619	29.35
997.791	68.27
997.964	-40.28
998.136	125.61
998.308	111.27
998.48	146.09
998.653	51.88
998.825	15.02
998.997	25.26
999.169	-13.65
999.342	45.74
999.514	-27.99
999.686	94.89
999.858	-58.71
1000.03	66.22
1000.202	-46.42
1000.374	-89.43
1000.547	23.21
1000.719	-9.56
1000.891	27.31
1001.063	53.93
1001.235	-15.7
1001.407	-66.9
1001.579	29.35
1001.751	15.02
1001.923	-130.39
1002.095	-46.42
1002.267	41.64
1002.439	6.83
1002.611	-62.8
1002.783	23.21
1002.955	96.94
1003.127	78.51
1003.299	74.41
1003.471	25.26
1003.643	107.18
1003.815	21.16
1003.986	2.73
1004.158	62.12
1004.33	90.79
1004.502	-13.65
1004.674	4.78
1004.846	154.28
1005.017	-42.32
1005.189	41.64
1005.361	-40.28
1005.533	64.17
1005.704	-3.41
1005.876	2.73
1006.048	74.41
1006.22	25.26
1006.391	-40.28
1006.563	68.27
1006.735	39.59
1006.906	49.83
1007.078	-216.4
1007.25	-56.66
1007.421	0.68
1007.593	60.07
1007.764	-48.47
1007.936	141.99
1008.108	35.5
1008.279	115.37
1008.451	-21.85
1008.622	146.09
1008.794	-19.8
1008.965	76.46
1009.137	17.07
1009.308	4.78
1009.48	76.46
1009.651	76.46
1009.823	21.16
1009.994	-23.89
1010.165	10.92
1010.337	-54.61
1010.508	23.21
1010.68	127.66
1010.851	-11.61
1011.022	-89.43
1011.194	60.07
1011.365	10.92
1011.536	-40.28
1011.708	53.93
1011.879	111.27
1012.05	80.55
1012.222	92.84
1012.393	21.16
1012.564	84.65
1012.735	117.42
1012.906	-36.18
1013.078	43.69
1013.249	-9.56
1013.42	-25.94
1013.591	-19.8
1013.762	154.28
1013.934	15.02
1014.105	-36.18
1014.276	86.7
1014.447	45.74
1014.618	105.13
1014.789	92.84
1014.96	98.99
1015.131	70.31
1015.302	37.55
1015.473	41.64
1015.644	70.31
1015.815	-64.85
1015.986	21.16
1016.157	33.45
1016.328	47.79
1016.499	51.88
1016.67	-30.04
1016.841	70.31
1017.012	15.02
1017.183	-9.56
1017.354	37.55
1017.525	-42.32
1017.696	39.59
1017.867	-7.51
1018.037	12.97
1018.208	164.52
1018.379	-9.56
1018.55	4.78
1018.721	70.31
1018.891	33.45
1019.062	27.31
1019.233	133.8
1019.404	121.51
1019.574	2.73
1019.745	-25.94
1019.916	-73.04
1020.087	70.31
1020.257	-40.28
1020.428	-122.2
1020.599	6.83
1020.769	0.68
1020.94	80.55
1021.11	92.84
1021.281	-73.04
1021.452	86.7
1021.622	4.78
1021.793	51.88
1021.963	78.51
1022.134	-169.3
1022.305	-30.04
1022.475	68.27
1022.646	154.28
1022.816	49.83
1022.987	17.07
1023.157	146.09
1023.327	39.59
1023.498	-7.51
1023.668	127.66
1023.839	21.16
1024.009	-25.94
1024.18	64.17
1024.35	109.22
1024.52	113.32
1024.691	49.83
1024.861	33.45
1025.031	-17.75
1025.202	23.21
1025.372	80.55
1025.542	-27.99
1025.713	58.03
1025.883	115.37
1026.053	12.97
1026.223	105.13
1026.394	15.02
1026.564	-7.51
1026.734	-9.56
1026.904	-7.51
1027.074	-36.18
1027.245	0.68
1027.415	2.73
1027.585	17.07
1027.755	-40.28
1027.925	-89.43
1028.095	4.78
1028.265	127.66
1028.435	-68.95
1028.606	21.16
1028.776	10.92
1028.946	-23.89
1029.116	2.73
1029.286	68.27
1029.456	86.7
1029.626	31.4
1029.796	-5.46
1029.966	35.5
1030.136	-9.56
1030.306	-15.7
1030.475	60.07
1030.645	-130.39
1030.815	45.74
1030.985	-9.56
1031.155	35.5
1031.325	43.69
1031.495	-91.48
1031.665	17.07
1031.835	51.88
1032.004	-3.41
1032.174	-122.2
1032.344	-13.65
1032.514	58.03
1032.684	-5.46
1032.853	31.4
1033.023	96.94
1033.193	60.07
1033.362	15.02
1033.532	53.93
1033.702	0.68
1033.872	154.28
1034.041	15.02
1034.211	162.47
1034.381	-105.81
1034.55	-68.95
1034.72	19.11
1034.889	72.36
1035.059	49.83
1035.229	21.16
1035.398	-52.56
1035.568	109.22
1035.737	-17.75
1035.907	23.21
1036.076	107.18
1036.246	12.97
1036.415	80.55
1036.585	-7.51
1036.754	-38.23
1036.924	58.03
1037.093	6.83
1037.263	-46.42
1037.432	121.51
1037.601	51.88
1037.771	-60.76
1037.94	66.22
1038.11	-79.19
1038.279	-13.65
1038.448	-19.8
1038.618	23.21
1038.787	98.99
1038.956	-85.33
1039.126	-58.71
1039.295	53.93
1039.464	88.75
1039.633	-21.85
1039.803	-64.85
1039.972	152.23
1040.141	2.73
1040.31	4.78
1040.479	76.46
1040.649	103.08
1040.818	-60.76
1040.987	-52.56
1041.156	-11.61
1041.325	-5.46
1041.494	64.17
1041.663	51.88
1041.833	60.07
1042.002	94.89
1042.171	-64.85
1042.34	-71
1042.509	86.7
1042.678	-32.08
