Data from LSP50_X7_Subt2_11-36-52-543.txt Node
Date: Wed Aug 09 11:36:52 EDT 2023
User: Emmanuel
Spectrometer: USB4A00615
Scans to average: 1
Trigger mode: 1
Integration Time (sec): 4.000000E-3
Electric dark correction enabled: true
Boxcar width: 0
XAxis mode: Wavelengths
Number of Pixels in Spectrum: 3648
>>>>>Begin Spectral Data<<<<<
346.606	86.01
346.818	86.01
347.029	86.01
347.241	219.13
347.452	135.17
347.664	0
347.876	8.19
348.087	0
348.299	-10.24
348.51	-14.34
348.722	-43.01
348.933	26.62
349.145	-14.34
349.356	75.77
349.568	0
349.779	-22.53
349.991	-6.14
350.202	6.14
350.414	30.72
350.625	-53.25
350.836	-16.38
351.048	-47.1
351.259	-63.49
351.471	110.59
351.682	-12.29
351.893	-88.06
352.105	73.73
352.316	-32.77
352.527	57.34
352.739	-45.06
352.95	4.1
353.161	-116.73
353.372	-36.86
353.584	-20.48
353.795	30.72
354.006	51.2
354.217	-30.72
354.429	-38.91
354.64	-6.14
354.851	-129.02
355.062	-79.87
355.274	67.58
355.485	-28.67
355.696	-155.65
355.907	8.19
356.118	-63.49
356.329	28.67
356.54	-18.43
356.752	-57.34
356.963	-14.34
357.174	2.05
357.385	77.82
357.596	32.77
357.807	8.19
358.018	-26.62
358.229	63.49
358.44	-92.16
358.651	-43.01
358.862	55.3
359.073	-83.97
359.284	-30.72
359.495	-65.54
359.706	-16.38
359.917	-86.01
360.128	30.72
360.339	-114.69
360.55	108.54
360.761	-83.97
360.972	47.1
361.182	-8.19
361.393	18.43
361.604	49.15
361.815	-10.24
362.026	-4.1
362.237	57.34
362.447	47.1
362.658	4.1
362.869	30.72
363.08	26.62
363.291	-14.34
363.501	45.06
363.712	22.53
363.923	16.38
364.134	10.24
364.344	43.01
364.555	-88.06
364.766	108.54
364.976	14.34
365.187	-55.3
365.398	-36.86
365.608	-96.25
365.819	-2.05
366.03	116.73
366.24	106.49
366.451	-198.65
366.662	98.3
366.872	28.67
367.083	22.53
367.293	-71.68
367.504	-20.48
367.714	-57.34
367.925	47.1
368.135	6.14
368.346	40.96
368.557	-172.03
368.767	67.58
368.977	-16.38
369.188	-10.24
369.398	-8.19
369.609	47.1
369.819	40.96
370.03	55.3
370.24	94.21
370.451	-55.3
370.661	40.96
370.871	4.1
371.082	63.49
371.292	86.01
371.502	-26.62
371.713	65.54
371.923	-69.63
372.133	-16.38
372.344	10.24
372.554	43.01
372.764	-38.91
372.975	22.53
373.185	-36.86
373.395	36.86
373.605	-26.62
373.816	24.58
374.026	-24.58
374.236	4.1
374.446	126.97
374.656	12.29
374.867	-14.34
375.077	77.82
375.287	63.49
375.497	-32.77
375.707	-36.86
375.917	-6.14
376.127	18.43
376.338	153.6
376.548	24.58
376.758	86.01
376.968	20.48
377.178	-59.39
377.388	24.58
377.598	-30.72
377.808	-116.73
378.018	-47.1
378.228	8.19
378.438	34.82
378.648	215.04
378.858	-32.77
379.068	-4.1
379.278	98.3
379.488	24.58
379.698	-4.1
379.908	-24.58
380.118	133.12
380.327	-75.77
380.537	34.82
380.747	-22.53
380.957	51.2
381.167	12.29
381.377	143.36
381.587	28.67
381.796	57.34
382.006	-24.58
382.216	-47.1
382.426	169.98
382.636	-43.01
382.845	49.15
383.055	20.48
383.265	-20.48
383.475	36.86
383.684	-73.73
383.894	98.3
384.104	-69.63
384.313	8.19
384.523	16.38
384.733	36.86
384.942	-57.34
385.152	71.68
385.362	32.77
385.571	49.15
385.781	94.21
385.991	-6.14
386.2	36.86
386.41	6.14
386.619	81.92
386.829	-79.87
387.038	-24.58
387.248	30.72
387.457	133.12
387.667	51.2
387.876	-45.06
388.086	53.25
388.295	-59.39
388.505	-16.38
388.714	176.13
388.924	-36.86
389.133	-45.06
389.343	45.06
389.552	-45.06
389.762	-4.1
389.971	169.98
390.18	28.67
390.39	18.43
390.599	36.86
390.808	-32.77
391.018	65.54
391.227	83.97
391.436	-55.3
391.646	182.27
391.855	28.67
392.064	143.36
392.274	8.19
392.483	98.3
392.692	126.97
392.901	-24.58
393.111	108.54
393.32	126.97
393.529	247.8
393.738	108.54
393.947	290.81
394.157	473.08
394.366	86.01
394.575	131.07
394.784	194.56
394.993	120.83
395.202	100.35
395.411	229.37
395.62	167.93
395.83	182.27
396.039	227.32
396.248	167.93
396.457	124.93
396.666	49.15
396.875	264.19
397.084	135.17
397.293	210.94
397.502	219.13
397.711	53.25
397.92	-43.01
398.129	120.83
398.338	323.58
398.547	67.58
398.756	147.45
398.965	98.3
399.174	30.72
399.382	38.91
399.591	243.71
399.8	32.77
400.009	40.96
400.218	18.43
400.427	229.37
400.636	0
400.844	178.17
401.053	147.45
401.262	217.08
401.471	239.61
401.68	344.06
401.888	184.32
402.097	165.89
402.306	129.02
402.515	184.32
402.723	129.02
402.932	245.76
403.141	258.04
403.35	159.74
403.558	81.92
403.767	118.78
403.976	239.61
404.184	14.34
404.393	172.03
404.602	505.85
404.81	133.12
405.019	157.69
405.227	559.1
405.436	421.88
405.645	122.88
405.853	317.44
406.062	360.44
406.27	434.17
406.479	155.65
406.687	366.59
406.896	296.96
407.104	198.65
407.313	321.53
407.521	563.19
407.73	583.67
407.938	546.81
408.147	727.03
408.355	458.75
408.563	266.24
408.772	303.1
408.98	434.17
409.189	360.44
409.397	137.21
409.605	495.61
409.814	518.14
410.022	143.36
410.23	421.88
410.439	616.44
410.647	647.16
410.855	548.86
411.064	751.6
411.272	417.79
411.48	249.85
411.688	487.42
411.897	395.26
412.105	499.7
412.313	442.36
412.521	847.86
412.73	798.71
412.938	348.15
413.146	661.49
413.354	1038.32
413.562	428.03
413.77	667.64
413.979	1062.9
414.187	1091.57
414.395	325.63
414.603	499.7
414.811	1015.79
415.019	948.21
415.227	409.59
415.435	1374.19
415.643	1370.09
415.851	1023.98
416.059	1220.59
416.267	3192.78
416.475	2889.68
416.683	2447.32
416.891	2758.61
417.099	2910.16
417.307	2029.54
417.515	1957.86
417.723	2306.01
417.931	1988.58
418.139	1060.85
418.347	1509.35
418.555	2047.97
418.763	1525.74
418.971	974.83
419.179	1789.92
419.386	2222.05
419.594	1593.32
419.802	1806.31
420.01	2965.46
420.218	3082.19
420.426	3094.48
420.633	3506.12
420.841	4440
421.049	2844.63
421.257	2338.78
421.464	2584.54
421.672	2691.03
421.88	1773.54
422.088	1241.07
422.295	1560.55
422.503	1173.49
422.711	825.33
422.918	1519.59
423.126	1492.97
423.334	718.84
423.541	346.11
423.749	473.08
423.956	978.93
424.164	403.45
424.372	299
424.579	737.27
424.787	968.69
424.994	362.49
425.202	460.79
425.409	843.76
425.617	567.29
425.824	331.77
426.032	432.12
426.239	1071.09
426.447	747.51
426.654	503.8
426.862	843.76
427.069	1552.36
427.277	944.11
427.484	786.42
427.692	1114.1
427.899	1417.19
428.106	575.48
428.314	385.02
428.521	649.21
428.728	858.1
428.936	239.61
429.143	327.67
429.351	415.74
429.558	460.79
429.765	190.46
429.972	262.14
430.18	319.48
430.387	702.45
430.594	206.84
430.801	227.32
431.009	626.68
431.216	243.71
431.423	18.43
431.63	116.73
431.838	385.02
432.045	16.38
432.252	94.21
432.459	153.6
432.666	294.91
432.873	204.8
433.081	174.08
433.288	327.67
433.495	245.76
433.702	499.7
433.909	210.94
434.116	583.67
434.323	573.43
434.53	253.95
434.737	258.04
434.944	757.75
435.151	663.54
435.358	122.88
435.565	110.59
435.772	276.48
435.979	346.11
436.186	186.37
436.393	176.13
436.6	151.55
436.807	120.83
437.014	59.39
437.221	133.12
437.428	417.79
437.635	362.49
437.841	112.64
438.048	157.69
438.255	260.09
438.462	223.23
438.669	161.79
438.876	196.61
439.082	313.34
439.289	313.34
439.496	36.86
439.703	176.13
439.91	417.79
440.116	391.16
440.323	133.12
440.53	67.58
440.737	552.95
440.943	503.8
441.15	155.65
441.357	286.72
441.563	546.81
441.77	317.44
441.977	235.52
442.183	186.37
442.39	548.86
442.597	843.76
442.803	378.87
443.01	393.21
443.216	561.14
443.423	548.86
443.63	344.06
443.836	299
444.043	638.97
444.249	581.62
444.456	616.44
444.662	466.94
444.869	387.07
445.075	815.09
445.282	669.69
445.488	288.76
445.695	616.44
445.901	483.32
446.107	647.16
446.314	350.2
446.52	645.11
446.727	866.29
446.933	841.72
447.139	370.68
447.346	700.41
447.552	1085.42
447.759	835.57
447.965	368.63
448.171	624.63
448.378	1011.7
448.584	1056.75
448.79	876.53
448.996	579.58
449.203	839.67
449.409	1015.79
449.615	706.55
449.821	511.99
450.028	894.96
450.234	1298.41
450.44	1064.94
450.646	849.91
450.852	821.24
451.059	950.26
451.265	1335.28
451.471	1028.08
451.677	1021.94
451.883	1413.1
452.089	1431.53
452.295	1069.04
452.502	673.78
452.708	1595.37
452.914	1363.95
453.12	1523.69
453.326	778.23
453.532	1243.12
453.738	1302.51
453.944	1421.29
454.15	942.07
454.356	1099.76
454.562	757.75
454.768	1513.45
454.974	1077.23
455.18	956.4
455.386	935.92
455.592	1409
455.798	946.16
456.003	1122.29
456.209	1116.14
456.415	1290.22
456.621	1478.63
456.827	1191.92
457.033	729.08
457.239	1030.13
457.444	675.83
457.65	1689.57
457.856	950.26
458.062	1179.63
458.268	823.28
458.473	1411.05
458.679	1013.74
458.885	1083.38
459.091	1216.49
459.296	1822.69
459.502	1400.81
459.708	1357.8
459.914	872.43
460.119	1566.7
460.325	1261.55
460.531	1384.43
460.736	1347.56
460.942	1679.33
461.147	1822.69
461.353	1503.21
461.559	925.68
461.764	1435.63
461.97	1380.33
462.175	1720.29
462.381	1472.49
462.587	1771.49
462.792	1259.5
462.998	1480.68
463.203	1669.09
463.409	1800.16
463.614	1392.62
463.82	1593.32
464.025	1650.66
464.231	1910.75
464.436	1277.93
464.641	1300.46
464.847	1597.42
465.052	1845.22
465.258	1359.85
465.463	1703.91
465.669	1605.61
465.874	2000.87
466.079	1873.89
466.285	1607.66
466.49	1384.43
466.695	1697.77
466.901	1720.29
467.106	2041.82
467.311	1390.57
467.516	1902.56
467.722	1916.9
467.927	2500.57
468.132	1849.32
468.338	1880.04
468.543	1421.29
468.748	2039.78
468.953	1855.46
469.158	1839.08
469.364	1621.99
469.569	2097.12
469.774	1777.64
469.979	2344.92
470.184	2062.3
470.389	2158.56
470.594	1873.89
470.8	2648.02
471.005	2127.84
471.21	2203.61
471.415	1863.65
471.62	2437.08
471.825	2056.16
472.03	2549.72
472.235	2389.98
472.44	2095.07
472.645	2072.54
472.85	2754.52
473.055	2506.71
473.26	2408.41
473.465	2265.05
473.67	2484.19
473.875	2285.53
474.08	2752.47
474.285	2277.34
474.49	2486.23
474.695	2396.12
474.899	2820.05
475.104	2379.74
475.309	2676.7
475.514	2701.27
475.719	2703.32
475.924	2758.61
476.128	2744.28
476.333	2611.16
476.538	2613.21
476.743	2674.65
476.948	2889.68
477.152	2744.28
477.357	2889.68
477.562	2850.77
477.767	2879.44
477.971	2922.45
478.176	3166.16
478.381	2537.43
478.585	3037.14
478.79	2969.55
478.995	3035.09
479.199	2992.08
479.404	3418.06
479.609	2713.56
479.813	2912.21
480.018	3280.85
480.223	3518.41
480.427	3076.05
480.632	3542.99
480.836	2998.23
481.041	3000.27
481.245	3168.21
481.45	3524.55
481.654	2996.18
481.859	3432.4
482.063	3385.29
482.268	3184.59
482.472	3317.71
482.677	3309.52
482.881	3252.17
483.086	3532.75
483.29	3293.13
483.495	3450.83
483.699	3305.42
483.903	3487.69
484.108	3391.44
484.312	3604.42
484.517	3534.79
484.721	3536.84
484.925	3297.23
485.13	3700.68
485.334	3373
485.538	3440.59
485.743	3350.48
485.947	3377.1
486.151	3338.19
486.355	3594.19
486.56	3389.39
486.764	3706.82
486.968	3272.65
487.172	3651.53
487.377	3330
487.581	4014.02
487.785	3547.08
487.989	3416.01
488.193	3200.98
488.397	3747.78
488.602	3315.66
488.806	3600.33
489.01	3297.23
489.214	3252.17
489.418	3258.32
489.622	3364.81
489.826	3164.11
490.03	3235.79
490.234	3153.87
490.438	3059.67
490.642	3282.89
490.846	3430.35
491.05	2947.03
491.254	3037.14
491.458	2777.05
491.662	3045.33
491.866	2938.84
492.07	3160.02
492.274	3200.98
492.478	3090.38
492.682	2879.44
492.886	2830.29
493.09	3051.47
493.294	3188.69
493.498	2930.64
493.701	3045.33
493.905	2494.43
494.109	2746.33
494.313	2858.96
494.517	3229.65
494.721	2459.61
494.924	2994.13
495.128	2291.68
495.332	2379.74
495.536	2770.9
495.739	3045.33
495.943	2447.32
496.147	2875.35
496.351	2033.63
496.554	2482.14
496.758	2674.65
496.962	2719.7
497.165	2398.17
497.369	2775
497.573	2236.38
497.776	2389.98
497.98	2379.74
498.184	2703.32
498.387	2248.67
498.591	2529.24
498.794	1890.28
498.998	1976.29
499.202	2299.87
499.405	2451.42
499.609	2105.31
499.812	2373.6
500.016	1886.18
500.219	2426.84
500.423	2111.46
500.626	2275.29
500.83	2238.43
501.033	2658.26
501.237	1599.46
501.44	2158.56
501.643	1814.5
501.847	1970.15
502.05	2181.09
502.254	2387.93
502.457	1730.53
502.66	1951.71
502.864	1591.27
503.067	1837.03
503.271	2093.02
503.474	2176.99
503.677	1538.02
503.88	1964
504.084	1325.04
504.287	1593.32
504.49	1953.76
504.694	2480.09
504.897	2035.68
505.1	2041.82
505.303	1232.88
505.507	1755.11
505.71	1720.29
505.913	1820.64
506.116	1914.85
506.319	2164.7
506.522	1435.63
506.726	1736.68
506.929	1427.43
507.132	1644.52
507.335	1617.9
507.538	2142.18
507.741	1359.85
507.944	1617.9
508.147	1048.56
508.35	1660.9
508.553	1748.97
508.756	1787.88
508.959	1667.05
509.163	2084.83
509.366	1169.39
509.569	1671.14
509.771	1525.74
509.974	1617.9
510.177	2070.5
510.38	2062.3
510.583	1347.56
510.786	1525.74
510.989	1177.58
511.192	1597.42
511.395	1794.02
511.598	1746.92
511.801	1738.73
512.004	1986.53
512.206	1157.1
512.409	1554.41
512.612	1392.62
512.815	1904.61
513.018	1937.38
513.22	2052.06
513.423	1400.81
513.626	1744.87
513.829	1230.83
514.032	1714.15
514.234	1748.97
514.437	2064.35
514.64	2125.79
514.842	2004.96
515.045	1392.62
515.248	1572.84
515.45	1521.64
515.653	1935.33
515.856	2131.94
516.058	2252.77
516.261	2146.27
516.464	1986.53
516.666	1204.21
516.869	1908.71
517.071	1882.08
517.274	2025.44
517.477	1912.8
517.679	2531.29
517.882	2430.94
518.084	2244.57
518.287	1513.45
518.489	1980.39
518.692	2254.81
518.894	2254.81
519.097	2398.17
519.299	2447.32
519.501	2123.74
519.704	2342.88
519.906	1523.69
520.109	2279.39
520.311	1990.63
520.514	2213.85
520.716	2357.21
520.918	2775
521.121	2047.97
521.323	2170.85
521.525	1429.48
521.728	2392.03
521.93	2248.67
522.132	2246.62
522.335	2547.67
522.537	2908.12
522.739	2025.44
522.941	2291.68
523.144	1875.94
523.346	2019.3
523.548	2041.82
523.75	2252.77
523.952	2435.03
524.155	2770.9
524.357	2023.39
524.559	2127.84
524.761	1906.66
524.963	2191.33
525.165	2174.94
525.368	2271.2
525.57	2590.68
525.772	2838.48
525.974	2285.53
526.176	2549.72
526.378	1746.92
526.58	2226.14
526.782	1851.36
526.984	2002.91
527.186	2371.55
527.388	2539.48
527.59	2136.03
527.792	2627.54
527.994	2029.54
528.196	2002.91
528.398	1619.94
528.6	2199.52
528.802	1722.34
529.004	2351.07
529.206	2066.4
529.408	2820.05
529.609	1925.09
529.811	2342.88
530.013	2105.31
530.215	1828.84
530.417	1759.21
530.619	2281.44
530.821	2066.4
531.022	2197.47
531.224	1767.4
531.426	2688.98
531.628	1974.24
531.829	1830.88
532.031	2050.02
532.233	1900.51
532.435	1710.05
532.636	2070.5
532.838	2043.87
533.04	2447.32
533.241	1980.39
533.443	2088.93
533.645	1996.77
533.846	1740.77
534.048	1619.94
534.25	1978.34
534.451	1718.25
534.653	1826.79
534.855	1636.33
535.056	2488.28
535.258	1726.44
535.459	1810.4
535.661	1820.64
535.862	2015.2
536.064	1265.64
536.265	2007.01
536.467	1388.52
536.668	1843.17
536.87	1705.96
537.071	2007.01
537.273	1916.9
537.474	1996.77
537.676	1830.88
537.877	1818.6
538.078	1241.07
538.28	1624.04
538.481	1304.56
538.683	1845.22
538.884	1130.48
539.085	1841.12
539.287	1712.1
539.488	1765.35
539.689	1581.03
539.891	1871.84
540.092	1253.36
540.293	1779.68
540.495	1576.94
540.696	1529.83
540.897	1466.35
541.098	1716.2
541.3	1646.57
541.501	1757.16
541.702	1662.95
541.903	2269.15
542.104	1345.52
542.306	1591.27
542.507	1460.2
542.708	1527.78
542.909	1478.63
543.11	1568.74
543.311	905.2
543.512	1593.32
543.713	1513.45
543.915	1746.92
544.116	1394.67
544.317	2076.64
544.518	1632.23
544.719	1742.82
544.92	1421.29
545.121	1607.66
545.322	1304.56
545.523	1574.89
545.724	1495.02
545.925	1531.88
546.126	1499.11
546.327	2162.66
546.528	1560.55
546.729	2066.4
546.929	1816.55
547.13	2009.06
547.331	1495.02
547.532	1785.83
547.733	1419.24
547.934	1591.27
548.135	1259.5
548.336	1644.52
548.536	1116.14
548.737	2056.16
548.938	1615.85
549.139	1871.84
549.34	1982.43
549.54	2136.03
549.741	1871.84
549.942	1857.51
550.143	1124.33
550.343	1810.4
550.544	1570.79
550.745	1867.75
550.945	1204.21
551.146	1728.49
551.347	1742.82
551.547	1718.25
551.748	1912.8
551.949	2097.12
552.149	1908.71
552.35	2029.54
552.551	1980.39
552.751	1945.57
552.952	1386.47
553.152	2050.02
553.353	1363.95
553.553	1689.57
553.754	1581.03
553.954	1275.88
554.155	1515.5
554.356	1830.88
554.556	1765.35
554.756	2037.73
554.957	2095.07
555.157	2117.6
555.358	2234.33
555.558	2349.02
555.759	1869.8
555.959	2004.96
556.159	1853.41
556.36	1718.25
556.56	1519.59
556.761	1945.57
556.961	1341.42
557.161	1877.99
557.362	1523.69
557.562	1951.71
557.762	1794.02
557.963	2103.26
558.163	1642.47
558.363	2220
558.563	2185.18
558.764	2023.39
558.964	2379.74
559.164	2070.5
559.364	1867.75
559.565	2011.11
559.765	1581.03
559.965	1779.68
560.165	1449.96
560.365	1597.42
560.565	1134.57
560.766	1886.18
560.966	1253.36
561.166	1423.34
561.366	1660.9
561.566	1681.38
561.766	1685.48
561.966	2041.82
562.166	1597.42
562.366	2400.22
562.566	1787.88
562.766	1845.22
562.966	1775.59
563.166	2023.39
563.366	1601.51
563.566	1810.4
563.766	1333.23
563.966	1568.74
564.166	1316.84
564.366	1165.29
564.566	1046.51
564.766	1538.02
564.966	817.14
565.166	1697.77
565.366	937.97
565.565	1236.97
565.765	1128.43
565.965	1263.6
566.165	1206.25
566.365	1736.68
566.565	1562.6
566.764	1746.92
566.964	1789.92
567.164	1605.61
567.364	1626.09
567.564	1802.21
567.763	1034.22
567.963	1550.31
568.163	1183.73
568.362	1355.76
568.562	966.64
568.762	1122.29
568.961	911.35
569.161	1003.5
569.361	491.51
569.56	980.98
569.76	550.9
569.96	696.31
570.159	641.01
570.359	716.79
570.558	749.56
570.758	1302.51
570.958	423.93
571.157	1185.77
571.357	784.37
571.556	870.39
571.756	997.36
571.955	1136.62
572.155	946.16
572.354	1703.91
572.554	962.55
572.753	1431.53
572.953	1327.08
573.152	1159.15
573.351	1267.69
573.551	1409
573.75	1085.42
573.95	1302.51
574.149	438.27
574.348	1380.33
574.548	819.19
574.747	847.86
574.946	878.58
575.146	776.18
575.345	901.11
575.544	698.36
575.744	577.53
575.943	638.97
576.142	581.62
576.342	571.38
576.541	571.38
576.74	471.03
576.939	495.61
577.138	387.07
577.338	458.75
577.537	880.63
577.736	364.54
577.935	673.78
578.134	159.74
578.333	524.28
578.533	403.45
578.732	342.01
578.931	405.5
579.13	675.83
579.329	256
579.528	655.35
579.727	587.77
579.926	552.95
580.125	516.09
580.324	614.39
580.523	544.76
580.722	395.26
580.921	722.93
581.12	974.83
581.319	299
581.518	1161.2
581.717	352.25
581.916	649.21
582.115	610.29
582.314	634.87
582.513	745.46
582.712	667.64
582.911	585.72
583.109	1017.84
583.308	503.8
583.507	976.88
583.706	561.14
583.905	985.07
584.104	931.83
584.302	555
584.501	690.17
584.7	698.36
584.899	638.97
585.098	935.92
585.296	444.41
585.495	1296.36
585.694	458.75
585.892	1069.04
586.091	602.1
586.29	589.82
586.488	1007.6
586.687	698.36
586.886	767.99
587.084	749.56
587.283	677.88
587.482	1619.94
587.68	1632.23
587.879	2379.74
588.077	1669.09
588.276	2140.13
588.475	2156.51
588.673	1845.22
588.872	1718.25
589.07	1077.23
589.269	1026.03
589.467	1077.23
589.666	569.34
589.864	1222.64
590.063	405.5
590.261	1296.36
590.46	675.83
590.658	983.03
590.857	737.27
591.055	671.73
591.253	831.48
591.452	675.83
591.65	862.19
591.848	552.95
592.047	540.66
592.245	700.41
592.444	579.58
592.642	714.74
592.84	452.6
593.038	823.28
593.237	632.82
593.435	610.29
593.633	677.88
593.832	540.66
594.03	825.33
594.228	583.67
594.426	636.92
594.624	749.56
594.823	329.72
595.021	978.93
595.219	303.1
595.417	1038.32
595.615	423.93
595.813	804.85
596.012	546.81
596.21	800.76
596.408	651.25
596.606	501.75
596.804	819.19
597.002	507.9
597.2	757.75
597.398	767.99
597.596	587.77
597.794	886.77
597.992	364.54
598.19	884.72
598.388	428.03
598.586	1007.6
598.784	499.7
598.982	1003.5
599.18	692.21
599.378	784.37
599.576	669.69
599.774	645.11
599.972	747.51
600.17	645.11
600.368	778.23
600.565	937.97
600.763	526.33
600.961	854
601.159	585.72
601.357	856.05
601.555	589.82
601.752	1429.48
601.95	544.76
602.148	1181.68
602.346	790.52
602.544	1359.85
602.741	925.68
602.939	1122.29
603.137	874.48
603.334	1163.25
603.532	894.96
603.73	929.78
603.927	1066.99
604.125	925.68
604.323	1038.32
604.52	1073.14
604.718	942.07
604.916	1136.62
605.113	813.04
605.311	1224.69
605.508	897.01
605.706	1167.34
605.904	819.19
606.101	1124.33
606.299	745.46
606.496	999.41
606.694	600.05
606.891	735.22
607.089	540.66
607.286	593.91
607.484	755.7
607.681	565.24
607.879	983.02
608.076	632.82
608.273	692.21
608.471	641.01
608.668	772.08
608.866	583.67
609.063	737.27
609.26	751.6
609.458	780.28
609.655	800.76
609.852	571.38
610.05	1046.51
610.247	350.2
610.444	950.26
610.642	403.45
610.839	602.1
611.036	262.14
611.233	770.04
611.431	284.67
611.628	727.03
611.825	272.38
612.022	860.15
612.22	344.06
612.417	841.72
612.614	382.97
612.811	645.11
613.008	419.83
613.205	468.98
613.402	350.2
613.6	655.35
613.797	399.35
613.994	299
614.191	462.84
614.388	456.7
614.585	350.2
614.782	456.7
614.979	374.78
615.176	520.18
615.373	212.99
615.57	473.08
615.767	495.61
615.964	403.45
616.161	169.98
616.358	403.45
616.555	245.76
616.752	172.03
616.949	215.04
617.146	395.26
617.343	143.36
617.539	317.44
617.736	280.57
617.933	483.32
618.13	401.4
618.327	636.92
618.524	243.71
618.721	288.76
618.917	194.56
619.114	282.62
619.311	231.42
619.508	165.89
619.704	206.84
619.901	256
620.098	204.8
620.295	411.64
620.491	180.22
620.688	548.86
620.885	262.14
621.081	358.39
621.278	174.08
621.475	151.55
621.671	81.92
621.868	266.24
622.065	120.83
622.261	286.72
622.458	40.96
622.655	337.91
622.851	151.55
623.048	225.28
623.244	163.84
623.441	145.41
623.637	239.61
623.834	94.21
624.03	155.65
624.227	280.57
624.423	235.52
624.62	352.25
624.816	71.68
625.013	313.34
625.209	98.3
625.406	272.38
625.602	65.54
625.798	184.32
625.995	30.72
626.191	278.52
626.388	49.15
626.584	346.11
626.78	81.92
626.977	182.27
627.173	36.86
627.369	190.46
627.566	20.48
627.762	288.76
627.958	210.94
628.154	108.54
628.351	157.69
628.547	346.11
628.743	28.67
628.939	202.75
629.136	120.83
629.332	149.5
629.528	180.22
629.724	124.93
629.92	135.17
630.116	210.94
630.313	219.13
630.509	182.27
630.705	186.37
630.901	47.1
631.097	40.96
631.293	135.17
631.489	0
631.685	77.82
631.881	157.69
632.077	194.56
632.273	28.67
632.469	106.49
632.665	104.45
632.861	90.11
633.057	40.96
633.253	90.11
633.449	6.14
633.645	141.31
633.841	79.87
634.037	167.93
634.233	116.73
634.429	151.55
634.625	14.34
634.821	198.65
635.017	65.54
635.212	98.3
635.408	53.25
635.604	192.51
635.8	94.21
635.996	198.65
636.191	49.15
636.387	163.84
636.583	55.3
636.779	108.54
636.975	118.78
637.17	83.97
637.366	104.45
637.562	122.88
637.757	4.1
637.953	0
638.149	151.55
638.345	55.3
638.54	114.69
638.736	104.45
638.931	124.93
639.127	-12.29
639.323	165.89
639.518	94.21
639.714	69.63
639.909	88.06
640.105	153.6
640.301	92.16
640.496	141.31
640.692	194.56
640.887	55.3
641.083	155.65
641.278	163.84
641.474	112.64
641.669	65.53
641.865	43.01
642.06	151.55
642.256	264.19
642.451	-34.82
642.646	36.86
642.842	57.34
643.037	71.68
643.233	61.44
643.428	161.79
643.623	-16.38
643.819	49.15
644.014	147.45
644.209	10.24
644.405	20.48
644.6	153.6
644.795	14.34
644.99	12.29
645.186	2.05
645.381	53.25
645.576	71.68
645.771	104.45
645.967	20.48
646.162	49.15
646.357	-6.14
646.552	122.88
646.747	163.84
646.943	16.38
647.138	77.82
647.333	116.73
647.528	-225.28
647.723	184.32
647.918	30.72
648.113	51.2
648.308	51.2
648.504	81.92
648.699	53.25
648.894	-59.39
649.089	-22.53
649.284	98.3
649.479	-24.58
649.674	49.15
649.869	122.88
650.064	22.53
650.259	102.4
650.454	-40.96
650.649	8.19
650.844	55.3
651.038	18.43
651.233	102.4
651.428	36.86
651.623	77.82
651.818	-75.77
652.013	69.63
652.208	12.29
652.403	36.86
652.597	26.62
652.792	57.34
652.987	219.13
653.182	63.49
653.377	118.78
653.571	53.25
653.766	34.82
653.961	0
654.156	16.38
654.35	-55.3
654.545	-49.15
654.74	-30.72
654.935	57.34
655.129	49.15
655.324	28.67
655.519	53.25
655.713	135.17
655.908	-55.3
656.102	-77.82
656.297	63.49
656.492	147.45
656.686	26.62
656.881	-116.73
657.075	24.58
657.27	8.19
657.464	-86.01
657.659	20.48
657.854	-12.29
658.048	124.93
658.243	-49.15
658.437	45.06
658.631	86.01
658.826	59.39
659.02	94.21
659.215	57.34
659.409	4.1
659.604	-28.67
659.798	51.2
659.992	-32.77
660.187	63.49
660.381	32.77
660.576	98.3
660.77	45.06
660.964	57.34
661.159	79.87
661.353	38.91
661.547	-14.34
661.742	-2.05
661.936	79.87
662.13	63.49
662.324	149.5
662.519	118.78
662.713	-32.77
662.907	73.73
663.101	81.92
663.295	110.59
663.49	79.87
663.684	-4.1
663.878	10.24
664.072	106.49
664.266	67.58
664.46	30.72
664.654	32.77
664.849	-2.05
665.043	49.15
665.237	141.31
665.431	10.24
665.625	34.82
665.819	63.49
666.013	-18.43
666.207	-32.77
666.401	73.73
666.595	38.91
666.789	159.74
666.983	-73.73
667.177	165.89
667.371	10.24
667.565	135.17
667.759	61.44
667.953	-10.24
668.147	4.1
668.34	-104.45
668.534	49.15
668.728	16.38
668.922	28.67
669.116	141.31
669.31	-24.58
669.504	67.58
669.697	65.54
669.891	45.06
670.085	65.53
670.279	16.38
670.473	14.34
670.666	-36.86
670.86	-12.29
671.054	102.4
671.248	34.82
671.441	28.67
671.635	-36.86
671.829	-45.06
672.022	-2.05
672.216	-2.05
672.41	18.43
672.603	116.73
672.797	79.87
672.99	40.96
673.184	-2.05
673.378	-126.97
673.571	47.1
673.765	10.24
673.958	-6.14
674.152	12.29
674.345	12.29
674.539	147.45
674.733	-32.77
674.926	83.97
675.12	24.58
675.313	92.16
675.506	-45.06
675.7	-12.29
675.893	47.1
676.087	163.84
676.28	75.77
676.474	149.5
676.667	94.21
676.86	-34.82
677.054	10.24
677.247	24.58
677.441	24.58
677.634	6.14
677.827	65.54
678.02	32.77
678.214	112.64
678.407	-83.97
678.6	20.48
678.794	43.01
678.987	2.05
679.18	28.67
679.373	6.14
679.567	-43.01
679.76	-45.06
679.953	-32.77
680.146	-22.53
680.339	40.96
680.533	36.86
680.726	47.1
680.919	18.43
681.112	90.11
681.305	-10.24
681.498	6.14
681.691	34.82
681.884	45.06
682.077	24.58
682.271	69.63
682.464	24.58
682.657	-45.06
682.85	-30.72
683.043	26.62
683.236	-4.1
683.429	79.87
683.622	59.39
683.815	-53.25
684.008	16.38
684.201	8.19
684.393	47.1
684.586	40.96
684.779	-28.67
684.972	149.5
685.165	45.06
685.358	118.78
685.551	79.87
685.744	61.44
685.937	59.39
686.129	12.29
686.322	131.07
686.515	-28.67
686.708	65.53
686.901	38.91
687.093	-6.14
687.286	-24.58
687.479	32.77
687.672	63.49
687.864	79.87
688.057	145.41
688.25	108.54
688.442	4.1
688.635	-63.49
688.828	-10.24
689.02	16.38
689.213	112.64
689.406	20.48
689.598	124.93
689.791	-81.92
689.984	63.49
690.176	186.37
690.369	135.17
690.561	22.53
690.754	16.38
690.946	22.53
691.139	-30.72
691.331	24.58
691.524	-47.1
691.716	131.07
691.909	53.25
692.101	-81.92
692.294	6.14
692.486	47.1
692.679	147.45
692.871	-8.19
693.063	40.96
693.256	12.29
693.448	43.01
693.641	-4.1
693.833	112.64
694.025	10.24
694.218	174.08
694.41	366.59
694.602	2068.45
694.795	5007.28
694.987	10463.07
695.179	13670.19
695.372	11083.61
695.564	10792.8
695.756	8562.56
695.948	5986.21
696.14	5011.38
696.333	2838.48
696.525	1798.12
696.717	477.18
696.909	407.55
697.101	243.71
697.294	73.73
697.486	149.5
697.678	96.25
697.87	57.34
698.062	59.39
698.254	26.62
698.446	-30.72
698.638	124.93
698.83	49.15
699.022	14.34
699.215	88.06
699.407	47.1
699.599	196.61
699.791	-6.14
699.983	118.78
700.175	10.24
700.367	88.06
700.558	-26.62
700.75	92.16
700.942	40.96
701.134	71.68
701.326	45.06
701.518	-20.48
701.71	-67.58
701.902	88.06
702.094	32.77
702.286	-51.2
702.477	83.97
702.669	32.77
702.861	36.86
703.053	55.3
703.245	-63.49
703.436	90.11
703.628	-59.39
703.82	47.1
704.012	106.49
704.203	43.01
704.395	135.17
704.587	833.52
704.779	2293.73
704.97	7755.66
705.162	11235.16
705.354	10936.15
705.545	11007.83
705.737	8030.09
705.929	6350.75
706.12	5363.63
706.312	3471.31
706.503	2504.67
706.695	1066.99
706.887	942.07
707.078	274.43
707.27	-8.19
707.461	-55.3
707.653	18.43
707.844	153.6
708.036	28.67
708.227	141.31
708.419	-63.49
708.61	-4.1
708.802	79.87
708.993	53.25
709.185	124.93
709.376	-22.53
709.567	-24.58
709.759	10.24
709.95	-4.1
710.141	-22.53
710.333	118.78
710.524	-10.24
710.716	-51.2
710.907	43.01
711.098	-34.82
711.289	-14.34
711.481	55.3
711.672	18.43
711.863	-16.38
712.055	-28.67
712.246	20.48
712.437	32.77
712.628	0
712.82	38.91
713.011	-45.06
713.202	69.63
713.393	63.49
713.584	-98.3
713.775	-2.05
713.967	34.82
714.158	32.77
714.349	30.72
714.54	-79.87
714.731	55.3
714.922	-6.14
715.113	-6.14
715.304	0
715.495	-24.58
715.686	77.82
715.877	-12.29
716.068	-26.62
716.259	22.53
716.45	4.1
716.641	141.31
716.832	-124.93
717.023	55.3
717.214	4.1
717.405	73.73
717.596	49.15
717.787	-36.86
717.978	45.06
718.169	47.1
718.36	-22.53
718.55	-26.62
718.741	-81.92
718.932	96.25
719.123	-22.53
719.314	6.14
719.505	43.01
719.695	-12.29
719.886	45.06
720.077	114.69
720.268	-45.06
720.458	59.39
720.649	75.77
720.84	14.34
721.031	104.45
721.221	53.25
721.412	26.62
721.603	-12.29
721.793	155.65
721.984	63.49
722.175	124.93
722.365	124.93
722.556	59.39
722.746	12.29
722.937	-63.49
723.128	-12.29
723.318	47.1
723.509	118.78
723.699	-24.58
723.89	174.08
724.08	10.24
724.271	-14.34
724.461	14.34
724.652	90.11
724.842	-40.96
725.033	0
725.223	38.91
725.414	65.54
725.604	55.3
725.794	610.29
725.985	733.17
726.175	722.93
726.366	593.91
726.556	182.27
726.746	178.17
726.937	57.34
727.127	30.72
727.317	63.49
727.508	-120.83
727.698	6.14
727.888	102.4
728.079	-2.05
728.269	-83.97
728.459	-102.4
728.649	24.58
728.84	59.39
729.03	79.87
729.22	59.39
729.41	36.86
729.6	88.06
729.791	12.29
729.981	-26.62
730.171	83.97
730.361	2.05
730.551	-6.14
730.741	77.82
730.931	2.05
731.121	-24.58
731.311	-73.73
731.502	63.49
731.692	22.53
731.882	-4.1
732.072	-16.38
732.262	-67.58
732.452	-20.48
732.642	-28.67
732.832	100.35
733.022	53.25
733.212	6.14
733.402	180.22
733.591	131.07
733.781	63.49
733.971	22.53
734.161	-4.1
734.351	126.97
734.541	98.3
734.731	75.77
734.921	-18.43
735.111	-4.1
735.3	-8.19
735.49	69.63
735.68	106.49
735.87	51.2
736.06	368.63
736.249	1562.6
736.439	3205.07
736.629	8179.59
736.819	11777.87
737.008	17082.11
737.198	17712.88
737.388	13985.58
737.577	12719.93
737.767	10114.92
737.957	7055.25
738.146	5752.74
738.336	3686.34
738.526	2670.55
738.715	1333.23
738.905	557.05
739.094	335.87
739.284	278.52
739.474	81.92
739.663	51.2
739.853	77.82
740.042	-165.89
740.232	151.55
740.421	16.38
740.611	67.58
740.8	73.73
740.99	0
741.179	75.77
741.369	28.67
741.558	0
741.748	96.25
741.937	32.77
742.126	43.01
742.316	38.91
742.505	63.49
742.695	65.53
742.884	-20.48
743.073	45.06
743.263	28.67
743.452	-73.73
743.641	98.3
743.831	69.63
744.02	49.15
744.209	-86.01
744.398	112.64
744.588	6.14
744.777	57.34
744.966	63.49
745.155	18.43
745.345	26.62
745.534	-59.39
745.723	-2.05
745.912	-6.14
746.101	12.29
746.29	-8.19
746.48	-6.14
746.669	55.3
746.858	49.15
747.047	14.34
747.236	-51.2
747.425	104.45
747.614	53.25
747.803	61.44
747.992	26.62
748.181	110.59
748.37	1327.08
748.559	1972.19
748.748	6684.57
748.937	10366.82
749.126	11161.43
749.315	12926.78
749.504	13156.15
749.693	13395.76
749.882	18118.38
750.071	19957.46
750.26	18222.83
750.449	17297.14
750.638	14403.36
750.826	11519.82
751.015	9875.31
751.204	7161.75
751.393	5294
751.582	3846.09
751.771	2799.57
751.959	1433.58
752.148	964.59
752.337	450.55
752.526	294.91
752.714	75.77
752.903	45.06
753.092	-94.21
753.281	49.15
753.469	26.62
753.658	-30.72
753.847	-69.63
754.035	26.62
754.224	-30.72
754.413	-6.14
754.601	-4.1
754.79	77.82
754.979	-57.34
755.167	45.06
755.356	49.15
755.544	47.1
755.733	61.44
755.921	38.91
756.11	-28.67
756.298	-16.38
756.487	65.53
756.675	96.25
756.864	-2.05
757.052	77.82
757.241	8.19
757.429	16.38
757.618	-20.48
757.806	47.1
757.995	-18.43
758.183	-45.06
758.371	-112.64
758.56	24.58
758.748	8.19
758.937	8.19
759.125	6.14
759.313	22.53
759.502	-10.24
759.69	-47.1
759.878	0
760.066	-73.73
760.255	-16.38
760.443	38.91
760.631	165.89
760.819	327.67
761.008	677.88
761.196	1398.76
761.384	2631.64
761.572	5924.77
761.761	8826.75
761.949	17159.93
762.137	27219.55
762.325	28931.65
762.513	27772.5
762.701	26551.91
762.889	21270.2
763.077	17278.71
763.266	14294.82
763.454	11212.63
763.642	7987.08
763.83	6547.36
764.018	4235.2
764.206	3076.05
764.394	2000.87
764.582	1472.49
764.77	686.07
764.958	1026.03
765.146	452.6
765.334	223.23
765.522	159.74
765.71	-65.54
765.898	-40.96
766.085	18.43
766.273	94.21
766.461	-12.29
766.649	36.86
766.837	-32.77
767.025	86.01
767.213	120.83
767.401	-81.92
767.588	30.72
767.776	104.45
767.964	-83.97
768.152	118.78
768.339	155.65
768.527	10.24
768.715	-22.53
768.903	167.93
769.09	2.05
769.278	108.54
769.466	-14.34
769.654	-94.21
769.841	-61.44
770.029	55.3
770.217	75.77
770.404	122.88
770.592	1066.99
770.779	3825.61
770.967	7276.43
771.155	11863.88
771.342	15036.19
771.53	11607.89
771.717	10229.6
771.905	8228.74
772.092	6234.02
772.28	4120.51
772.467	3243.98
772.655	1376.24
772.842	806.9
773.03	342.01
773.217	73.73
773.405	94.21
773.592	55.3
773.78	51.2
773.967	-47.1
774.154	133.12
774.342	-40.96
774.529	-57.34
774.717	4.1
774.904	30.72
775.091	-34.82
775.279	83.97
775.466	90.11
775.653	0
775.841	49.15
776.028	75.77
776.215	-40.96
776.402	79.87
776.59	73.73
776.777	86.01
776.964	12.29
777.151	135.17
777.338	83.97
777.526	-2.05
777.713	4.1
777.9	36.86
778.087	-45.06
778.274	75.77
778.461	-10.24
778.649	12.29
778.836	-182.27
779.023	6.14
779.21	49.15
779.397	116.73
779.584	30.72
779.771	81.92
779.958	-28.67
780.145	-67.58
780.332	73.73
780.519	18.43
780.706	-20.48
780.893	-59.39
781.08	-49.15
781.267	65.54
781.454	30.72
781.641	38.91
781.828	120.83
782.015	-20.48
782.202	12.29
782.388	81.92
782.575	-12.29
782.762	47.1
782.949	43.01
783.136	102.4
783.323	-4.1
783.509	38.91
783.696	-55.3
783.883	-18.43
784.07	-10.24
784.257	110.59
784.443	-98.3
784.63	79.87
784.817	-86.01
785.004	-26.62
785.19	40.96
785.377	28.67
785.564	126.97
785.75	67.58
785.937	53.25
786.124	8.19
786.31	-6.14
786.497	38.91
786.683	86.01
786.87	-32.77
787.057	104.45
787.243	26.62
787.43	43.01
787.616	-51.2
787.803	51.2
787.989	-69.63
788.176	-18.43
788.362	137.21
788.549	28.67
788.735	75.77
788.922	22.53
789.108	81.92
789.295	73.73
789.481	-18.43
789.668	34.82
789.854	0
790.04	65.54
790.227	-40.96
790.413	-10.24
790.599	-22.53
790.786	96.25
790.972	69.63
791.158	-38.91
791.345	51.2
791.531	108.54
791.717	43.01
791.904	-77.82
792.09	98.3
792.276	94.21
792.462	-20.48
792.649	-73.73
792.835	14.34
793.021	120.83
793.207	135.17
793.393	2119.65
793.58	6764.44
793.766	9969.51
793.952	8652.67
794.138	8499.07
794.324	6969.24
794.51	5076.91
794.696	3286.99
794.882	2758.61
795.069	1052.66
795.255	501.75
795.441	100.35
795.627	114.69
795.813	38.91
795.999	63.49
796.185	94.21
796.371	86.01
796.557	6.14
796.743	73.73
796.929	212.99
797.115	-18.43
797.3	34.82
797.486	32.77
797.672	227.32
797.858	-2.05
798.044	118.78
798.23	2.05
798.416	-6.14
798.602	-10.24
798.788	30.72
798.973	-53.25
799.159	174.08
799.345	2662.36
799.531	4132.8
799.717	4507.58
799.902	5887.91
800.088	7229.33
800.274	7954.31
800.46	11685.71
800.645	12660.54
800.831	9611.12
801.017	7088.02
801.202	6438.81
801.388	4198.34
801.574	2590.68
801.759	1445.87
801.945	854
802.131	270.33
802.316	88.06
802.502	184.32
802.687	83.97
802.873	55.3
803.058	118.78
803.244	-32.77
803.43	53.25
803.615	47.1
803.801	12.29
803.986	-10.24
804.172	49.15
804.357	38.91
804.543	73.73
804.728	59.39
804.913	98.3
805.099	26.62
805.284	2.05
805.47	-2.05
805.655	40.96
805.84	-6.14
806.026	47.1
806.211	-10.24
806.397	-73.73
806.582	-8.19
806.767	159.74
806.953	120.83
807.138	47.1
807.323	53.25
807.508	8.19
807.694	32.77
807.879	137.21
808.064	22.53
808.249	276.48
808.435	530.42
808.62	1241.07
808.805	1597.42
808.99	4917.17
809.175	9852.78
809.361	12398.4
809.546	13193.01
809.731	15429.4
809.916	14632.74
810.101	14165.8
810.286	17923.82
810.471	24432.27
810.656	23725.72
810.841	21278.4
811.026	22023.86
811.211	19580.63
811.396	15132.44
811.581	13131.58
811.766	11630.41
811.951	9023.35
812.136	6309.79
812.321	5420.97
812.506	4435.9
812.691	2748.37
812.876	1720.29
813.061	1859.56
813.246	892.91
813.431	348.15
813.616	217.08
813.801	249.85
813.986	-57.34
814.17	43.01
814.355	172.03
814.54	61.44
814.725	61.44
814.91	114.69
815.094	53.25
815.279	139.26
815.464	96.25
815.649	92.16
815.833	2.05
816.018	-38.91
816.203	-69.63
816.388	4.1
816.572	88.06
816.757	6.14
816.942	14.34
817.126	36.86
817.311	-4.1
817.496	61.44
817.68	102.4
817.865	-14.34
818.049	81.92
818.234	67.58
818.419	59.39
818.603	-6.14
818.788	63.49
818.972	51.2
819.157	59.39
819.341	-8.19
819.526	18.43
819.71	79.87
819.895	98.3
820.079	100.35
820.264	69.63
820.448	67.58
820.633	65.53
820.817	-6.14
821.001	38.91
821.186	88.06
821.37	81.92
821.554	-30.72
821.739	-75.77
821.923	61.44
822.108	-92.16
822.292	-22.53
822.476	55.3
822.66	-24.58
822.845	28.67
823.029	63.49
823.213	36.86
823.398	69.63
823.582	-75.77
823.766	88.06
823.95	55.3
824.134	65.54
824.319	18.43
824.503	-20.48
824.687	26.62
824.871	38.91
825.055	65.54
825.239	83.97
825.423	344.06
825.608	3448.78
825.792	3479.5
825.976	3438.54
826.16	3342.28
826.344	2691.03
826.528	778.23
826.712	374.78
826.896	186.37
827.08	-34.82
827.264	73.73
827.448	-36.86
827.632	73.73
827.816	73.73
828	38.91
828.184	-4.1
828.368	-28.67
828.552	-22.53
828.736	116.73
828.919	-8.19
829.103	96.25
829.287	51.2
829.471	94.21
829.655	-124.93
829.839	77.82
830.023	-40.96
830.206	43.01
830.39	-14.34
830.574	43.01
830.758	6.14
830.941	20.48
831.125	-24.58
831.309	-51.2
831.493	-14.34
831.676	88.06
831.86	-83.97
832.044	79.87
832.227	75.77
832.411	155.65
832.595	-55.3
832.778	-16.38
832.962	22.53
833.146	69.63
833.329	4.1
833.513	2.05
833.696	-16.38
833.88	92.16
834.064	10.24
834.247	26.62
834.431	131.07
834.614	53.25
834.798	38.91
834.981	51.2
835.165	51.2
835.348	-51.2
835.532	-8.19
835.715	-30.72
835.898	-34.82
836.082	12.29
836.265	-38.91
836.449	30.72
836.632	75.77
836.815	4.1
836.999	100.35
837.182	-12.29
837.365	-83.97
837.549	8.19
837.732	69.63
837.915	-22.53
838.099	-67.58
838.282	67.58
838.465	49.15
838.648	-45.06
838.832	-77.82
839.015	45.06
839.198	45.06
839.381	38.91
839.565	88.06
839.748	233.47
839.931	2822.1
840.114	6004.64
840.297	7479.18
840.48	6231.97
840.663	6336.42
840.847	5777.32
841.03	4681.66
841.213	3323.85
841.396	3999.68
841.579	5650.35
841.762	7870.34
841.945	8404.86
842.128	8077.19
842.311	7552.91
842.494	6115.23
842.677	3706.82
842.86	2717.65
843.043	1626.09
843.226	1069.04
843.409	163.84
843.592	-2.05
843.775	110.59
843.958	131.07
844.141	36.86
844.323	-65.54
844.506	38.91
844.689	155.65
844.872	-59.39
845.055	28.67
845.238	32.77
845.42	-43.01
845.603	40.96
845.786	-40.96
845.969	-75.77
846.152	-26.62
846.334	14.34
846.517	36.86
846.7	16.38
846.883	55.3
847.065	167.93
847.248	-34.82
847.431	114.69
847.613	-24.58
847.796	40.96
847.979	4.1
848.161	26.62
848.344	79.87
848.526	122.88
848.709	53.25
848.892	38.91
849.074	137.21
849.257	-12.29
849.439	8.19
849.622	-73.73
849.804	34.82
849.987	-43.01
850.169	102.4
850.352	14.34
850.534	22.53
850.717	43.01
850.899	-51.2
851.082	45.06
851.264	24.58
851.446	-26.62
851.629	174.08
851.811	575.48
851.994	403.45
852.176	176.13
852.358	227.32
852.541	77.82
852.723	100.35
852.905	-12.29
853.088	0
853.27	51.2
853.452	79.87
853.635	-8.19
853.817	32.77
853.999	73.73
854.181	26.62
854.363	-6.14
854.546	24.58
854.728	-18.43
854.91	102.4
855.092	36.86
855.274	106.49
855.457	-18.43
855.639	108.54
855.821	-30.72
856.003	38.91
856.185	47.1
856.367	10.24
856.549	-8.19
856.731	24.58
856.913	30.72
857.095	12.29
857.277	-69.63
857.459	63.49
857.641	126.97
857.823	57.34
858.005	67.58
858.187	30.72
858.369	55.3
858.551	18.43
858.733	20.48
858.915	86.01
859.097	49.15
859.279	106.49
859.461	61.44
859.643	18.43
859.824	98.3
860.006	-110.59
860.188	55.3
860.37	34.82
860.552	-61.44
860.734	-20.48
860.915	73.73
861.097	59.39
861.279	-22.53
861.461	51.2
861.642	-18.43
861.824	24.58
862.006	137.21
862.188	-22.53
862.369	14.34
862.551	24.58
862.733	122.88
862.914	-22.53
863.096	106.49
863.278	92.16
863.459	-2.05
863.641	-14.34
863.822	4.1
864.004	8.19
864.185	-43.01
864.367	38.91
864.549	-32.77
864.73	-34.82
864.912	18.43
865.093	-40.96
865.275	-53.25
865.456	-36.86
865.638	18.43
865.819	106.49
866.001	141.31
866.182	43.01
866.363	102.4
866.545	57.34
866.726	59.39
866.908	126.97
867.089	6.14
867.27	-79.87
867.452	67.58
867.633	-38.91
867.814	57.34
867.996	22.53
868.177	2.05
868.358	106.49
868.54	24.58
868.721	-61.44
868.902	112.64
869.083	-71.68
869.265	-67.58
869.446	-198.65
869.627	61.44
869.808	-30.72
869.989	14.34
870.171	-63.49
870.352	4.1
870.533	6.14
870.714	20.48
870.895	24.58
871.076	135.17
871.257	65.54
871.438	34.82
871.619	67.58
871.801	49.15
871.982	40.96
872.163	38.91
872.344	43.01
872.525	75.77
872.706	-81.92
872.887	116.73
873.068	12.29
873.249	49.15
873.43	-20.48
873.61	53.25
873.791	30.72
873.972	112.64
874.153	-4.1
874.334	55.3
874.515	-18.43
874.696	12.29
874.877	-71.68
875.058	108.54
875.238	102.4
875.419	-43.01
875.6	16.38
875.781	-18.43
875.962	49.15
876.142	6.14
876.323	71.68
876.504	-57.34
876.685	16.38
876.865	0
877.046	-63.49
877.227	55.3
877.407	110.59
877.588	-6.14
877.769	-16.38
877.949	51.2
878.13	30.72
878.311	81.92
878.491	24.58
878.672	-45.06
878.853	-90.11
879.033	8.19
879.214	-86.01
879.394	-49.15
879.575	38.91
879.755	4.1
879.936	-28.67
880.116	-8.19
880.297	-26.62
880.477	18.43
880.658	-36.86
880.838	73.73
881.019	86.01
881.199	8.19
881.38	96.25
881.56	53.25
881.74	94.21
881.921	65.54
882.101	98.3
882.281	-38.91
882.462	-8.19
882.642	38.91
882.822	-51.2
883.003	28.67
883.183	-20.48
883.363	-4.1
883.544	69.63
883.724	-2.05
883.904	116.73
884.084	40.96
884.265	-26.62
884.445	-16.38
884.625	71.68
884.805	57.34
884.985	-24.58
885.166	43.01
885.346	63.49
885.526	104.45
885.706	30.72
885.886	79.87
886.066	-24.58
886.246	30.72
886.426	88.06
886.606	55.3
886.787	-12.29
886.967	18.43
887.147	79.87
887.327	-77.82
887.507	28.67
887.687	-57.34
887.867	20.48
888.047	-61.44
888.227	-12.29
888.406	49.15
888.586	24.58
888.766	53.25
888.946	28.67
889.126	22.53
889.306	12.29
889.486	-18.43
889.666	0
889.846	34.82
890.025	114.69
890.205	-28.67
890.385	108.54
890.565	30.72
890.745	71.68
890.924	34.82
891.104	-98.3
891.284	51.2
891.464	8.19
891.643	16.38
891.823	49.15
892.003	-43.01
892.183	120.83
892.362	47.1
892.542	-65.54
892.722	110.59
892.901	-92.16
893.081	75.77
893.26	6.14
893.44	-45.06
893.62	-22.53
893.799	-120.83
893.979	-4.1
894.158	6.14
894.338	120.83
894.517	61.44
894.697	57.34
894.877	43.01
895.056	63.49
895.236	6.14
895.415	-73.73
895.594	16.38
895.774	129.02
895.953	-69.63
896.133	12.29
896.312	98.3
896.492	2.05
896.671	-2.05
896.85	12.29
897.03	63.49
897.209	75.77
897.388	-45.06
897.568	-57.34
897.747	-18.43
897.926	65.53
898.106	45.06
898.285	92.16
898.464	131.07
898.643	55.3
898.823	-16.38
899.002	-28.67
899.181	86.01
899.36	53.25
899.54	63.49
899.719	34.82
899.898	63.49
900.077	55.3
900.256	59.39
900.435	-65.54
900.614	61.44
900.794	53.25
900.973	-10.24
901.152	-65.53
901.331	-4.1
901.51	71.68
901.689	75.77
901.868	-73.73
902.047	-106.49
902.226	45.06
902.405	57.34
902.584	51.2
902.763	32.77
902.942	20.48
903.121	98.3
903.3	-45.06
903.479	-30.72
903.658	26.62
903.837	18.43
904.015	47.1
904.194	88.06
904.373	90.11
904.552	53.25
904.731	104.45
904.91	43.01
905.089	4.1
905.267	94.21
905.446	30.72
905.625	45.06
905.804	-26.62
905.982	104.45
906.161	6.14
906.34	108.54
906.519	18.43
906.697	161.79
906.876	-20.48
907.055	12.29
907.233	61.44
907.412	-34.82
907.591	22.53
907.769	96.25
907.948	26.62
908.127	26.62
908.305	32.77
908.484	53.25
908.662	6.14
908.841	-51.2
909.019	-135.17
909.198	-53.25
909.377	53.25
909.555	-43.01
909.734	51.2
909.912	69.63
910.09	-10.24
910.269	43.01
910.447	57.34
910.626	75.77
910.804	55.3
910.983	26.62
911.161	-57.34
911.339	-77.82
911.518	38.91
911.696	-51.2
911.875	12.29
912.053	24.58
912.231	-49.15
912.41	55.3
912.588	114.69
912.766	-83.97
912.944	22.53
913.123	305.15
913.301	788.47
913.479	200.7
913.657	45.06
913.836	8.19
914.014	-12.29
914.192	75.77
914.37	-6.14
914.548	26.62
914.727	26.62
914.905	75.77
915.083	38.91
915.261	55.3
915.439	-2.05
915.617	63.49
915.795	-14.34
915.973	77.82
916.151	-59.39
916.329	-67.58
916.508	88.06
916.686	-12.29
916.864	24.58
917.042	-26.62
917.22	-71.68
917.398	-14.34
917.575	94.21
917.753	18.43
917.931	94.21
918.109	51.2
918.287	26.62
918.465	4.1
918.643	122.88
918.821	10.24
918.999	4.1
919.177	-100.35
919.354	43.01
919.532	34.82
919.71	-10.24
919.888	118.78
920.066	-63.49
920.243	-77.82
920.421	-18.43
920.599	-53.25
920.777	-12.29
920.954	59.39
921.132	55.3
921.31	81.92
921.488	124.93
921.665	104.45
921.843	75.77
922.021	2.05
922.198	-53.25
922.376	-10.24
922.553	-22.53
922.731	-102.4
922.909	-26.62
923.086	8.19
923.264	47.1
923.441	108.54
923.619	122.88
923.796	55.3
923.974	30.72
924.152	4.1
924.329	30.72
924.507	-71.68
924.684	-18.43
924.861	88.06
925.039	14.34
925.216	0
925.394	2.05
925.571	98.3
925.749	-63.49
925.926	51.2
926.103	47.1
926.281	34.82
926.458	18.43
926.635	104.45
926.813	2.05
926.99	-2.05
927.167	-92.16
927.345	112.64
927.522	16.38
927.699	24.58
927.876	110.59
928.054	45.06
928.231	34.82
928.408	53.25
928.585	53.25
928.763	-22.53
928.94	-53.25
929.117	-4.1
929.294	90.11
929.471	114.69
929.648	49.15
929.825	104.45
930.003	2.05
930.18	-49.15
930.357	6.14
930.534	4.1
930.711	-24.58
930.888	40.96
931.065	4.1
931.242	36.86
931.419	-40.96
931.596	16.38
931.773	-88.06
931.95	88.06
932.127	-43.01
932.304	-120.83
932.481	14.34
932.658	12.29
932.835	4.1
933.011	-12.29
933.188	163.84
933.365	67.58
933.542	26.62
933.719	2.05
933.896	-6.14
934.073	51.2
934.249	38.91
934.426	96.25
934.603	8.19
934.78	4.1
934.957	98.3
935.133	71.68
935.31	77.82
935.487	81.92
935.664	47.1
935.84	81.92
936.017	-43.01
936.194	53.25
936.37	26.62
936.547	-71.68
936.724	16.38
936.9	34.82
937.077	104.45
937.253	36.86
937.43	67.58
937.607	55.3
937.783	18.43
937.96	131.07
938.136	71.68
938.313	96.25
938.489	118.78
938.666	30.72
938.842	-20.48
939.019	4.1
939.195	-59.39
939.372	-26.62
939.548	-47.1
939.725	30.72
939.901	16.38
940.077	-108.54
940.254	-40.96
940.43	108.54
940.607	102.4
940.783	77.82
940.959	-18.43
941.136	90.11
941.312	-12.29
941.488	-28.67
941.665	-79.87
941.841	75.77
942.017	47.1
942.193	36.86
942.37	38.91
942.546	100.35
942.722	108.54
942.898	75.77
943.074	94.21
943.251	38.91
943.427	202.75
943.603	100.35
943.779	69.63
943.955	135.17
944.131	104.45
944.308	57.34
944.484	-8.19
944.66	34.82
944.836	-40.96
945.012	20.48
945.188	79.87
945.364	47.1
945.54	8.19
945.716	6.14
945.892	20.48
946.068	-55.3
946.244	20.48
946.42	126.97
946.596	30.72
946.772	61.44
946.948	53.25
947.124	-6.14
947.3	90.11
947.475	86.01
947.651	45.06
947.827	79.87
948.003	28.67
948.179	86.01
948.355	-6.14
948.531	16.38
948.706	-32.77
948.882	149.5
949.058	-28.67
949.234	20.48
949.409	-4.1
949.585	24.58
949.761	4.1
949.937	94.21
950.112	-26.62
950.288	-63.49
950.464	-53.25
950.639	-26.62
950.815	71.68
950.991	34.82
951.166	6.14
951.342	114.69
951.518	-106.49
951.693	69.63
951.869	67.58
952.044	6.14
952.22	8.19
952.395	45.06
952.571	-10.24
952.747	-43.01
952.922	-38.91
953.098	-32.77
953.273	12.29
953.448	-51.2
953.624	47.1
953.799	49.15
953.975	-10.24
954.15	38.91
954.326	83.97
954.501	102.4
954.676	55.3
954.852	-43.01
955.027	-32.77
955.203	28.67
955.378	-36.86
955.553	45.06
955.729	20.48
955.904	-14.34
956.079	106.49
956.254	-6.14
956.43	12.29
956.605	59.39
956.78	-6.14
956.955	20.48
957.131	24.58
957.306	-22.53
957.481	102.4
957.656	110.59
957.831	-67.58
958.007	65.54
958.182	169.98
958.357	75.77
958.532	20.48
958.707	90.11
958.882	77.82
959.057	10.24
959.232	-112.64
959.407	0
959.582	12.29
959.757	67.58
959.932	38.91
960.107	139.26
960.282	-43.01
960.457	32.77
960.632	6.14
960.807	165.89
960.982	55.3
961.157	-26.62
961.332	-77.82
961.507	-26.62
961.682	-16.38
961.857	22.53
962.032	4.1
962.206	-124.93
962.381	34.82
962.556	120.83
962.731	30.72
962.906	49.15
963.081	20.48
963.255	-75.77
963.43	157.69
963.605	-10.24
963.78	59.39
963.954	-61.44
964.129	18.43
964.304	-12.29
964.479	14.34
964.653	124.93
964.828	28.67
965.003	-22.53
965.177	133.12
965.352	4.1
965.526	-83.97
965.701	122.88
965.876	63.49
966.05	-45.06
966.225	-36.86
966.399	143.36
966.574	65.54
966.748	-34.82
966.923	32.77
967.098	-4.1
967.272	61.44
967.446	-43.01
967.621	57.34
967.795	-100.35
967.97	-4.1
968.144	-20.48
968.319	57.34
968.493	14.34
968.668	26.62
968.842	-159.74
969.016	-12.29
969.191	4.1
969.365	153.6
969.539	-90.11
969.714	-6.14
969.888	88.06
970.062	75.77
970.237	65.53
970.411	43.01
970.585	40.96
970.759	102.4
970.934	149.5
971.108	-16.38
971.282	-133.12
971.456	-24.58
971.63	-51.2
971.805	81.92
971.979	14.34
972.153	163.84
972.327	-40.96
972.501	-94.21
972.675	-40.96
972.849	-6.14
973.024	-51.2
973.198	26.62
973.372	2.05
973.546	-10.24
973.72	26.62
973.894	-26.62
974.068	-14.34
974.242	102.4
974.416	-49.15
974.59	71.68
974.764	34.82
974.938	38.91
975.112	-2.05
975.286	59.39
975.46	106.49
975.633	-63.49
975.807	47.1
975.981	120.83
976.155	-69.63
976.329	-6.14
976.503	34.82
976.677	124.93
976.85	141.31
977.024	-6.14
977.198	38.91
977.372	55.3
977.546	24.58
977.719	-65.54
977.893	100.35
978.067	-34.82
978.241	-53.25
978.414	53.25
978.588	90.11
978.762	-6.14
978.935	63.49
979.109	-28.67
979.283	83.97
979.456	135.17
979.63	-24.58
979.804	34.82
979.977	65.54
980.151	96.25
980.324	61.44
980.498	22.53
980.671	98.3
980.845	34.82
981.018	-57.34
981.192	-131.07
981.365	-53.25
981.539	200.7
981.712	26.62
981.886	-47.1
982.059	116.73
982.233	-20.48
982.406	-30.72
982.58	-45.06
982.753	38.91
982.926	63.49
983.1	-30.72
983.273	-40.96
983.446	-14.34
983.62	69.63
983.793	59.39
983.966	20.48
984.14	34.82
984.313	-24.58
984.486	-20.48
984.66	-6.14
984.833	10.24
985.006	-43.01
985.179	71.68
985.352	20.48
985.526	118.78
985.699	-75.77
985.872	43.01
986.045	57.34
986.218	-12.29
986.391	34.82
986.565	81.92
986.738	-20.48
986.911	-126.97
987.084	0
987.257	-53.25
987.43	2.05
987.603	26.62
987.776	102.4
987.949	59.39
988.122	65.54
988.295	34.82
988.468	65.53
988.641	-73.73
988.814	-110.59
988.987	61.44
989.16	10.24
989.333	55.3
989.506	61.44
989.679	36.86
989.852	63.49
990.025	124.93
990.197	22.53
990.37	-28.67
990.543	-26.62
990.716	38.91
990.889	-38.91
991.062	-28.67
991.234	-81.92
991.407	-155.65
991.58	83.97
991.753	65.54
991.925	-59.39
992.098	8.19
992.271	-30.72
992.444	96.25
992.616	-22.53
992.789	0
992.962	-75.77
993.134	-12.29
993.307	-32.77
993.479	59.39
993.652	26.62
993.825	20.48
993.997	-2.05
994.17	75.77
994.342	67.58
994.515	-55.3
994.688	-2.05
994.86	77.82
995.033	-69.63
995.205	-81.92
995.378	182.27
995.55	147.45
995.723	-57.34
995.895	90.11
996.067	-2.05
996.24	38.91
996.412	40.96
996.585	2.05
996.757	12.29
996.929	24.58
997.102	-63.49
997.274	6.14
997.447	81.92
997.619	94.21
997.791	-38.91
997.964	-63.49
998.136	20.48
998.308	-75.77
998.48	43.01
998.653	-8.19
998.825	120.83
998.997	43.01
999.169	-10.24
999.342	135.17
999.514	10.24
999.686	4.1
999.858	26.62
1000.03	12.29
1000.202	-36.86
1000.374	30.72
1000.547	-51.2
1000.719	47.1
1000.891	36.86
1001.063	-6.14
1001.235	8.19
1001.407	18.43
1001.579	112.64
1001.751	59.39
1001.923	-45.06
1002.095	75.77
1002.267	98.3
1002.439	-26.62
1002.611	-45.06
1002.783	8.19
1002.955	40.96
1003.127	65.54
1003.299	-75.77
1003.471	71.68
1003.643	4.1
1003.815	75.77
1003.986	14.34
1004.158	-57.34
1004.33	-55.3
1004.502	110.59
1004.674	-22.53
1004.846	167.93
1005.017	116.73
1005.189	10.24
1005.361	-71.68
1005.533	51.2
1005.704	-45.06
1005.876	88.06
1006.048	90.11
1006.22	61.44
1006.391	51.2
1006.563	10.24
1006.735	69.63
1006.906	47.1
1007.078	-106.49
1007.25	16.38
1007.421	-139.26
1007.593	-6.14
1007.764	18.43
1007.936	51.2
1008.108	0
1008.279	71.68
1008.451	6.14
1008.622	43.01
1008.794	14.34
1008.965	34.82
1009.137	32.77
1009.308	129.02
1009.48	32.77
1009.651	94.21
1009.823	67.58
1009.994	-36.86
1010.165	20.48
1010.337	102.4
1010.508	96.25
1010.68	-14.34
1010.851	120.83
1011.022	126.97
1011.194	-36.86
1011.365	-45.06
1011.536	-73.73
1011.708	86.01
1011.879	100.35
1012.05	-28.67
1012.222	55.3
1012.393	59.39
1012.564	38.91
1012.735	-49.15
1012.906	57.34
1013.078	131.07
1013.249	18.43
1013.42	14.34
1013.591	43.01
1013.762	51.2
1013.934	-4.1
1014.105	-34.82
1014.276	-20.48
1014.447	38.91
1014.618	49.15
1014.789	53.25
1014.96	-71.68
1015.131	20.48
1015.302	90.11
1015.473	100.35
1015.644	-53.25
1015.815	18.43
1015.986	32.77
1016.157	106.49
1016.328	8.19
1016.499	174.08
1016.67	86.01
1016.841	22.53
1017.012	-14.34
1017.183	-26.62
1017.354	-120.83
1017.525	-65.53
1017.696	55.3
1017.867	47.1
1018.037	116.73
1018.208	-73.73
1018.379	26.62
1018.55	-49.15
1018.721	20.48
1018.891	57.34
1019.062	81.92
1019.233	22.53
1019.404	106.49
1019.574	34.82
1019.745	-65.53
1019.916	-45.06
1020.087	86.01
1020.257	-2.05
1020.428	-110.59
1020.599	-96.25
1020.769	14.34
1020.94	75.77
1021.11	-104.45
1021.281	-2.05
1021.452	71.68
1021.622	47.1
1021.793	14.34
1021.963	26.62
1022.134	0
1022.305	28.67
1022.475	137.21
1022.646	-4.1
1022.816	65.53
1022.987	26.62
1023.157	43.01
1023.327	6.14
1023.498	20.48
1023.668	43.01
1023.839	-34.82
1024.009	-14.34
1024.18	47.1
1024.35	40.96
1024.52	51.2
1024.691	24.58
1024.861	-34.82
1025.031	49.15
1025.202	22.53
1025.372	24.58
1025.542	6.14
1025.713	59.39
1025.883	18.43
1026.053	145.41
1026.223	26.62
1026.394	-94.21
1026.564	-20.48
1026.734	8.19
1026.904	100.35
1027.074	-28.67
1027.245	-8.19
1027.415	18.43
1027.585	2.05
1027.755	-65.53
1027.925	67.58
1028.095	63.49
1028.265	-18.43
1028.435	49.15
1028.606	59.39
1028.776	18.43
1028.946	92.16
1029.116	4.1
1029.286	-16.38
1029.456	-59.39
1029.626	34.82
1029.796	-2.05
1029.966	-26.62
1030.136	-81.92
1030.306	83.97
1030.475	96.25
1030.645	-73.73
1030.815	36.86
1030.985	-77.82
1031.155	10.24
1031.325	28.67
1031.495	32.77
1031.665	40.96
1031.835	22.53
1032.004	2.05
1032.174	-49.15
1032.344	69.63
1032.514	16.38
1032.684	22.53
1032.853	-90.11
1033.023	112.64
1033.193	-28.67
1033.362	12.29
1033.532	-24.58
1033.702	-40.96
1033.872	43.01
1034.041	26.62
1034.211	-18.43
1034.381	45.06
1034.55	14.34
1034.72	51.2
1034.889	-34.82
1035.059	-32.77
1035.229	-36.86
1035.398	-126.97
1035.568	79.87
1035.737	-10.24
1035.907	-4.1
1036.076	-96.25
1036.246	75.77
1036.415	112.64
1036.585	-2.05
1036.754	10.24
1036.924	47.1
1037.093	55.3
1037.263	-69.63
1037.432	30.72
1037.601	14.34
1037.771	38.91
1037.94	16.38
1038.11	32.77
1038.279	118.78
1038.448	-14.34
1038.618	12.29
1038.787	-24.58
1038.956	-14.34
1039.126	47.1
1039.295	43.01
1039.464	40.96
1039.633	14.34
1039.803	-38.91
1039.972	94.21
1040.141	-143.36
1040.31	98.3
1040.479	34.82
1040.649	-73.73
1040.818	-92.16
1040.987	38.91
1041.156	22.53
1041.325	12.29
1041.494	10.24
1041.663	96.25
1041.833	98.3
1042.002	92.16
1042.171	6.14
1042.34	-57.34
1042.509	8.19
1042.678	-2.05
