Data from LSP63_S12_Subt4_17-13-28-762.txt Node
Date: Wed Aug 09 17:13:28 EDT 2023
User: Emmanuel
Spectrometer: USB4A00615
Scans to average: 1
Trigger mode: 1
Integration Time (sec): 1.300000E-2
Electric dark correction enabled: true
Boxcar width: 0
XAxis mode: Wavelengths
Number of Pixels in Spectrum: 3648
>>>>>Begin Spectral Data<<<<<
346.606	-35.33
346.818	-35.33
347.029	-35.33
347.241	65.02
347.452	46.59
347.664	-57.86
347.876	-104.96
348.087	87.55
348.299	-53.76
348.51	-16.9
348.722	26.11
348.933	30.21
349.145	17.92
349.356	91.65
349.568	-37.38
349.779	44.54
349.991	-27.14
350.202	30.21
350.414	-74.24
350.625	-152.06
350.836	40.45
351.048	-18.94
351.259	-92.67
351.471	-12.8
351.682	-49.66
351.893	17.92
352.105	89.6
352.316	-2.56
352.527	-100.86
352.739	-84.48
352.95	65.02
353.161	-82.43
353.372	-29.18
353.584	-23.04
353.795	67.07
354.006	22.02
354.217	-55.81
354.429	17.92
354.64	-0.51
354.851	-14.85
355.062	1.54
355.274	-0.51
355.485	89.6
355.696	1.54
355.907	9.73
356.118	9.73
356.329	58.88
356.54	73.21
356.752	-94.72
356.963	62.98
357.174	-37.38
357.385	-31.23
357.596	-39.42
357.807	-18.94
358.018	60.93
358.229	79.36
358.44	48.64
358.651	-47.62
358.862	-90.62
359.073	56.83
359.284	-64
359.495	-39.42
359.706	19.97
359.917	-20.99
360.128	26.11
360.339	-51.71
360.55	-14.85
360.761	3.58
360.972	-59.9
361.182	11.78
361.393	50.69
361.604	-68.09
361.815	-61.95
362.026	17.92
362.237	-12.8
362.447	-45.57
362.658	-37.38
362.869	-31.23
363.08	-96.77
363.291	5.63
363.501	112.13
363.712	-20.99
363.923	-47.62
364.134	-109.05
364.344	-55.81
364.555	1.54
364.766	30.21
364.976	-47.62
365.187	-41.47
365.398	87.55
365.608	40.45
365.819	-59.9
366.03	44.54
366.24	58.88
366.451	-64
366.662	9.73
366.872	-41.47
367.083	105.98
367.293	-18.94
367.504	-16.9
367.714	-2.56
367.925	85.5
368.135	-90.62
368.346	19.97
368.557	-90.62
368.767	-0.51
368.977	-0.51
369.188	26.11
369.398	101.89
369.609	17.92
369.819	15.87
370.03	-14.85
370.24	-18.94
370.451	-51.71
370.661	62.98
370.871	-4.61
371.082	73.21
371.292	-29.18
371.502	-49.66
371.713	22.02
371.923	1.54
372.133	-0.51
372.344	-10.75
372.554	22.02
372.764	-49.66
372.975	56.83
373.185	-18.94
373.395	-72.19
373.605	-82.43
373.816	40.45
374.026	19.97
374.236	-92.67
374.446	-18.94
374.656	-2.56
374.867	-78.33
375.077	-47.62
375.287	5.63
375.497	-84.48
375.707	75.26
375.917	-14.85
376.127	-51.71
376.338	13.82
376.548	54.78
376.758	-10.75
376.968	5.63
377.178	-51.71
377.388	-55.81
377.598	50.69
377.808	-41.47
378.018	32.26
378.228	26.11
378.438	-57.86
378.648	-70.14
378.858	-6.66
379.068	19.97
379.278	15.87
379.488	-51.71
379.698	5.63
379.908	-49.66
380.118	-27.14
380.327	-102.91
380.537	-47.62
380.747	-4.61
380.957	116.22
381.167	13.82
381.377	-66.05
381.587	-66.05
381.796	3.58
382.006	-4.61
382.216	56.83
382.426	-90.62
382.636	34.3
382.845	52.74
383.055	15.87
383.265	5.63
383.475	-2.56
383.684	-37.38
383.894	-98.81
384.104	65.02
384.313	15.87
384.523	-0.51
384.733	-47.62
384.942	48.64
385.152	22.02
385.362	-25.09
385.571	-6.66
385.781	-82.43
385.991	32.26
386.2	-51.71
386.41	-14.85
386.619	-35.33
386.829	79.36
387.038	-43.52
387.248	13.82
387.457	-49.66
387.667	26.11
387.876	5.63
388.086	-64
388.295	42.5
388.505	-4.61
388.714	120.32
388.924	1.54
389.133	132.61
389.343	42.5
389.552	-39.42
389.762	-20.99
389.971	-45.57
390.18	15.87
390.39	17.92
390.599	5.63
390.808	-18.94
391.018	11.78
391.227	-16.9
391.436	-33.28
391.646	-49.66
391.855	56.83
392.064	-29.18
392.274	-45.57
392.483	-31.23
392.692	-94.72
392.901	-31.23
393.111	26.11
393.32	-29.18
393.529	89.6
393.738	73.21
393.947	-45.57
394.157	-31.23
394.366	36.35
394.575	185.85
394.784	58.88
394.993	-94.72
395.202	32.26
395.411	48.64
395.62	28.16
395.83	220.67
396.039	42.5
396.248	-27.14
396.457	91.65
396.666	112.13
396.875	101.89
397.084	-4.61
397.293	60.93
397.502	40.45
397.711	36.35
397.92	67.07
398.129	-33.28
398.338	50.69
398.547	22.02
398.756	-64
398.965	56.83
399.174	28.16
399.382	-10.75
399.591	38.4
399.8	17.92
400.009	-14.85
400.218	-6.66
400.427	-27.14
400.636	-29.18
400.844	-0.51
401.053	32.26
401.262	157.18
401.471	341.5
401.68	17.92
401.888	52.74
402.097	71.17
402.306	-109.05
402.515	79.36
402.723	17.92
402.932	161.28
403.141	-31.23
403.35	38.4
403.558	50.69
403.767	-47.62
403.976	1.54
404.184	28.16
404.393	130.56
404.602	28.16
404.81	13.82
405.019	312.83
405.227	159.23
405.436	132.61
405.645	101.89
405.853	71.17
406.062	40.45
406.27	40.45
406.479	52.74
406.687	-4.61
406.896	-55.81
407.104	95.74
407.313	136.7
407.521	173.57
407.73	493.05
407.938	495.1
408.147	105.98
408.355	73.21
408.563	87.55
408.772	38.4
408.98	19.97
409.189	40.45
409.397	19.97
409.605	-16.9
409.814	69.12
410.022	48.64
410.23	-39.42
410.439	110.08
410.647	269.82
410.855	206.33
411.064	-47.62
411.272	73.21
411.48	73.21
411.688	15.87
411.897	17.92
412.105	13.82
412.313	24.06
412.521	32.26
412.73	153.09
412.938	214.52
413.146	36.35
413.354	69.12
413.562	58.88
413.77	173.57
413.979	22.02
414.187	69.12
414.395	136.7
414.603	22.02
414.811	173.57
415.019	177.66
415.227	206.33
415.435	112.13
415.643	26.11
415.851	531.96
416.059	478.71
416.267	1517.03
416.475	2465.24
416.683	3263.95
416.891	1129.97
417.099	1037.81
417.307	1875.43
417.515	1961.44
417.723	474.62
417.931	382.46
418.139	679.41
418.347	245.24
418.555	167.42
418.763	638.45
418.971	669.17
419.179	392.7
419.386	290.3
419.594	1398.25
419.802	1916.39
420.01	1078.77
420.218	2264.54
420.426	5608.87
420.633	4294.08
420.841	3505.61
421.049	2381.28
421.257	2667.99
421.464	1025.52
421.672	904.69
421.88	714.23
422.088	894.45
422.295	396.79
422.503	230.91
422.711	607.73
422.918	325.12
423.126	34.3
423.334	265.72
423.541	288.25
423.749	-25.09
423.956	192
424.164	220.67
424.372	202.24
424.579	265.72
424.787	247.29
424.994	394.75
425.202	536.06
425.409	263.68
425.617	202.24
425.824	581.11
426.032	486.9
426.239	734.71
426.447	1476.07
426.654	2252.25
426.862	1410.54
427.069	2262.49
427.277	2641.37
427.484	3599.82
427.692	2026.98
427.899	1621.48
428.106	2049.5
428.314	1029.62
428.521	722.42
428.728	538.1
428.936	361.98
429.143	511.48
429.351	298.49
429.558	830.96
429.765	1777.12
429.972	861.68
430.18	380.41
430.387	2667.99
430.594	2401.76
430.801	1445.35
431.009	1111.54
431.216	529.91
431.423	540.15
431.63	212.48
431.838	192
432.045	251.39
432.252	724.47
432.459	169.47
432.666	220.67
432.873	663.03
433.081	966.13
433.288	658.93
433.495	654.84
433.702	2831.83
433.909	2029.03
434.116	1308.14
434.323	878.07
434.53	1508.84
434.737	2295.26
434.944	1906.15
435.151	1265.13
435.358	1504.75
435.565	966.13
435.772	427.51
435.979	304.64
436.186	941.55
436.393	437.75
436.6	312.83
436.807	368.12
437.014	763.38
437.221	720.37
437.428	579.06
437.635	402.94
437.841	1031.66
438.048	1136.11
438.255	339.45
438.462	261.63
438.669	1119.73
438.876	800.24
439.082	628.21
439.289	413.18
439.496	683.51
439.703	534.01
439.91	1025.52
440.116	968.18
440.323	1302
440.53	925.17
440.737	1011.18
440.943	894.45
441.15	1277.42
441.357	1455.59
441.563	728.56
441.77	384.51
441.977	1420.78
442.183	1435.11
442.39	1162.73
442.597	1385.96
442.803	1699.3
443.01	1676.77
443.216	1017.33
443.423	466.42
443.63	1164.78
443.836	1746.41
444.043	1451.5
444.249	646.65
444.456	1320.43
444.662	1711.59
444.869	996.85
445.075	1054.19
445.282	1027.57
445.488	1091.06
445.695	1537.51
445.901	464.38
446.107	1193.45
446.314	1177.07
446.52	2086.37
446.727	1041.9
446.933	1035.76
447.139	972.27
447.346	1142.25
447.552	773.62
447.759	747
447.965	710.13
448.171	1103.34
448.378	1125.87
448.584	1471.98
448.79	927.22
448.996	1218.03
449.203	1117.68
449.409	990.7
449.615	589.3
449.821	1113.58
450.028	1023.47
450.234	787.96
450.44	603.64
450.646	1312.24
450.852	1228.27
451.059	1052.14
451.265	1388.01
451.471	1132.01
451.677	1920.48
451.883	1111.54
452.089	708.09
452.295	591.35
452.502	671.22
452.708	1623.53
452.914	841.2
453.12	1261.04
453.326	628.21
453.532	1631.72
453.738	620.02
453.944	413.18
454.15	423.42
454.356	1549.8
454.562	1164.78
454.768	904.69
454.974	419.32
455.18	794.1
455.386	1093.1
455.592	581.11
455.798	312.83
456.003	470.52
456.209	562.68
456.415	509.43
456.621	462.33
456.827	609.78
457.033	374.27
457.239	730.61
457.444	132.61
457.65	525.82
457.856	364.03
458.062	775.67
458.268	404.99
458.473	562.68
458.679	445.95
458.885	1101.3
459.091	503.29
459.296	1011.18
459.502	292.35
459.708	681.46
459.914	407.03
460.119	1578.47
460.325	378.36
460.531	343.55
460.736	878.07
460.942	636.41
461.147	732.66
461.353	615.93
461.559	329.21
461.764	982.51
461.97	783.86
462.175	663.03
462.381	335.35
462.587	747
462.792	534.01
462.998	699.89
463.203	296.44
463.409	1267.18
463.614	804.34
463.82	1111.54
464.025	607.73
464.231	1017.33
464.436	468.47
464.641	628.21
464.847	734.71
465.052	970.23
465.258	335.35
465.463	1306.09
465.669	2098.66
465.874	1564.14
466.079	1144.3
466.285	712.18
466.49	470.52
466.695	1203.69
466.901	603.64
467.106	1250.8
467.311	450.04
467.516	853.49
467.722	1549.8
467.927	2203.1
468.132	906.74
468.338	1115.63
468.543	837.11
468.748	1009.14
468.953	429.56
469.158	2033.12
469.364	1318.38
469.569	1615.34
469.774	820.72
469.979	1881.57
470.184	904.69
470.389	1527.27
470.594	1105.39
470.8	1789.41
471.005	929.27
471.21	2078.18
471.415	572.92
471.62	1488.36
471.825	1404.39
472.03	1646.05
472.235	1576.42
472.44	1953.25
472.645	1396.2
472.85	1740.26
473.055	1777.12
473.26	1580.52
473.465	808.44
473.67	1803.75
473.875	1494.51
474.08	1687.01
474.285	701.94
474.49	1609.19
474.695	1107.44
474.899	2229.73
475.104	1973.73
475.309	2184.67
475.514	1322.48
475.719	2661.85
475.924	1652.2
476.128	1582.57
476.333	1936.87
476.538	1965.54
476.743	728.56
476.948	1822.18
477.152	2051.55
477.357	1957.35
477.562	1326.57
477.767	1932.77
477.971	1535.46
478.176	1719.78
478.381	1375.72
478.585	1713.64
478.79	869.87
478.995	2112.99
479.199	1801.7
479.404	1521.13
479.609	1107.44
479.813	1975.78
480.018	1469.93
480.223	2837.97
480.427	2569.69
480.632	1586.66
480.836	1107.44
481.041	2346.46
481.245	2049.5
481.45	2024.93
481.654	1697.25
481.859	1408.49
482.063	1304.04
482.268	2500.06
482.472	2186.72
482.677	1682.92
482.881	1666.53
483.086	1502.7
483.29	1420.78
483.495	2452.95
483.699	2477.53
483.903	3481.03
484.108	3513.8
484.312	3495.37
484.517	2301.4
484.721	2235.87
484.925	1508.84
485.13	1572.33
485.334	1111.54
485.538	2080.22
485.743	1822.18
485.947	2094.56
486.151	1854.95
486.355	1641.96
486.56	1277.42
486.764	2455
486.968	1715.69
487.172	1345
487.377	1922.53
487.581	1605.1
487.785	1222.13
487.989	2721.24
488.193	3323.34
488.397	2885.08
488.602	2237.92
488.806	1932.77
489.01	1641.96
489.214	1732.07
489.418	1291.76
489.622	1275.37
489.826	937.46
490.03	1684.97
490.234	1551.85
490.438	1748.45
490.642	1068.53
490.846	900.59
491.05	755.19
491.254	1588.71
491.458	988.66
491.662	2209.25
491.866	1005.04
492.07	867.83
492.274	1039.86
492.478	1656.29
492.682	1013.23
492.886	1557.99
493.09	843.25
493.294	681.46
493.498	769.52
493.701	1562.09
493.905	1041.9
494.109	1336.81
494.313	730.61
494.517	1043.95
494.721	970.23
494.924	1238.51
495.128	908.79
495.332	1560.04
495.536	787.96
495.739	1052.14
495.943	808.44
496.147	1041.9
496.351	779.76
496.554	1963.49
496.758	669.17
496.962	572.92
497.165	445.95
497.369	1238.51
497.573	1478.12
497.776	2807.25
497.98	980.47
498.184	1228.27
498.387	1435.11
498.591	1142.25
498.794	1019.38
498.998	1115.63
499.202	507.38
499.405	990.7
499.609	755.19
499.812	888.31
500.016	1521.13
500.219	3446.22
500.423	1304.04
500.626	1308.14
500.83	972.27
501.033	1934.82
501.237	1629.67
501.44	2428.38
501.643	851.44
501.847	1086.96
502.05	390.65
502.254	1275.37
502.457	1514.98
502.66	1775.08
502.864	652.79
503.067	892.4
503.271	654.84
503.474	771.57
503.677	1011.18
503.88	1306.09
504.084	599.54
504.287	1193.45
504.49	962.03
504.694	1838.56
504.897	3343.82
505.1	3595.72
505.303	1869.28
505.507	1773.03
505.71	871.92
505.913	1250.8
506.116	640.5
506.319	1838.56
506.522	3474.89
506.726	2368.99
506.929	1687.01
507.132	1521.13
507.335	304.64
507.538	822.77
507.741	1541.61
507.944	867.83
508.147	976.37
508.35	1736.17
508.553	679.41
508.756	1060.34
508.959	617.97
509.163	898.55
509.366	939.51
509.569	1854.95
509.771	751.09
509.974	1285.61
510.177	837.11
510.38	1562.09
510.583	1242.61
510.786	1422.83
510.989	1291.76
511.192	1338.86
511.395	544.25
511.598	980.47
511.801	568.82
512.004	1652.2
512.206	1482.22
512.409	1811.94
512.612	724.47
512.815	1234.41
513.018	943.6
513.22	1172.97
513.423	677.37
513.626	1310.19
513.829	1179.12
514.032	1986.02
514.234	804.34
514.437	1158.64
514.64	1332.72
514.842	1433.07
515.045	1437.16
515.248	1461.74
515.45	1007.09
515.653	1418.73
515.856	624.12
516.058	957.94
516.261	1592.81
516.464	798.2
516.666	816.63
516.869	1822.18
517.071	849.4
517.274	1392.11
517.477	439.8
517.679	1267.18
517.882	1615.34
518.084	1623.53
518.287	1510.89
518.489	2059.74
518.692	1601
518.894	1670.63
519.097	1005.04
519.299	1213.93
519.501	1990.11
519.704	2123.23
519.906	1574.38
520.109	2420.19
520.311	642.55
520.514	1514.98
520.716	980.47
520.918	1302
521.121	1924.58
521.323	1959.39
521.525	947.7
521.728	2524.63
521.93	1897.96
522.132	1770.98
522.335	1328.62
522.537	1693.16
522.739	1248.75
522.941	1693.16
523.144	1015.28
523.346	1684.97
523.548	925.17
523.75	1404.39
523.952	1033.71
524.155	1082.86
524.357	1123.82
524.559	1633.77
524.761	968.18
524.963	2176.48
525.165	802.29
525.368	1676.77
525.57	1330.67
525.772	1654.25
525.974	1320.43
526.176	1693.16
526.378	798.2
526.58	1717.73
526.782	1007.09
526.984	1463.79
527.186	957.94
527.388	804.34
527.59	886.26
527.792	1680.87
527.994	845.3
528.196	2196.96
528.398	816.63
528.6	1773.03
528.802	417.27
529.004	871.92
529.206	949.75
529.408	1813.99
529.609	1000.94
529.811	2082.27
530.013	1226.22
530.215	1695.21
530.417	1113.58
530.619	1218.03
530.821	1322.48
531.022	1269.23
531.224	1236.46
531.426	2653.66
531.628	1373.68
531.829	1863.14
532.031	1197.55
532.233	1551.85
532.435	1215.98
532.636	781.81
532.838	1406.44
533.04	1721.83
533.241	1146.35
533.443	2510.3
533.645	1560.04
533.846	1719.78
534.048	1723.88
534.25	1844.71
534.451	1500.65
534.653	1248.75
534.855	1447.4
535.056	2268.64
535.258	1201.65
535.459	2381.28
535.661	1068.53
535.862	1994.21
536.064	1199.6
536.265	1404.39
536.467	1338.86
536.668	1510.89
536.87	1424.87
537.071	2663.9
537.273	1508.84
537.474	2287.07
537.676	1961.44
537.877	1760.74
538.078	1345
538.28	1459.69
538.481	1396.2
538.683	2020.83
538.884	779.76
539.085	2319.84
539.287	1791.46
539.488	2321.88
539.689	1209.84
539.891	2041.31
540.092	1641.96
540.293	1691.11
540.495	1775.08
540.696	1553.9
540.897	1285.61
541.098	1897.96
541.3	1977.83
541.501	2184.67
541.702	2170.33
541.903	2227.68
542.104	1908.19
542.306	1596.9
542.507	1613.29
542.708	2813.4
542.909	1418.73
543.11	2649.56
543.311	708.09
543.512	1859.04
543.713	2356.7
543.915	1816.04
544.116	1682.92
544.317	2512.35
544.518	1631.72
544.719	2135.52
544.92	1482.22
545.121	1598.95
545.322	1539.56
545.523	2354.65
545.724	2065.89
545.925	1545.7
546.126	1783.27
546.327	2700.76
546.528	2123.23
546.729	2248.16
546.929	1953.25
547.13	2477.53
547.331	1308.14
547.532	2153.95
547.733	1674.73
547.934	1707.49
548.135	1580.52
548.336	2647.51
548.536	1803.75
548.737	3186.13
548.938	1945.06
549.139	2305.5
549.34	1736.17
549.54	2708.95
549.741	1854.95
549.942	1863.14
550.143	814.58
550.343	1832.42
550.544	2031.07
550.745	2962.9
550.945	1471.98
551.146	2014.69
551.347	1443.31
551.547	1969.63
551.748	1279.47
551.949	2219.49
552.149	1926.63
552.35	1355.24
552.551	1492.46
552.751	1273.32
552.952	970.23
553.152	1471.98
553.353	1060.34
553.553	1777.12
553.754	1490.41
553.954	1463.79
554.155	1031.66
554.356	1867.24
554.556	1566.18
554.756	1674.73
554.957	1922.53
555.157	1408.49
555.358	1719.78
555.558	1826.28
555.759	736.76
555.959	1263.08
556.159	1068.53
556.36	1555.94
556.56	1213.93
556.761	1646.05
556.961	1857
557.161	1754.6
557.362	1699.3
557.562	1758.69
557.762	1242.61
557.963	2229.73
558.163	951.79
558.363	1289.71
558.563	1232.37
558.764	1263.08
558.964	1080.82
559.164	1123.82
559.364	1244.65
559.565	1236.46
559.765	1578.47
559.965	1048.05
560.165	1498.6
560.365	1777.12
560.565	1195.5
560.766	2108.9
560.966	994.8
561.166	896.5
561.366	1125.87
561.566	1469.93
561.766	830.96
561.966	1275.37
562.166	1113.58
562.366	1521.13
562.566	1230.32
562.766	1058.29
562.966	804.34
563.166	1811.94
563.366	556.54
563.566	1437.16
563.766	1101.3
563.966	2098.66
564.166	1138.16
564.366	1695.21
564.566	1046
564.766	1695.21
564.966	769.52
565.166	1916.39
565.366	908.79
565.565	1232.37
565.765	577.02
565.965	898.55
566.165	390.65
566.365	1709.54
566.565	714.23
566.764	986.61
566.964	841.2
567.164	812.53
567.364	550.39
567.564	878.07
567.763	351.74
567.963	294.4
568.163	773.62
568.362	1107.44
568.562	466.42
568.762	1046
568.961	421.37
569.161	947.7
569.361	321.02
569.56	1426.92
569.76	589.3
569.96	824.82
570.159	525.82
570.359	820.72
570.558	636.41
570.758	833.01
570.958	390.65
571.157	742.9
571.357	495.1
571.556	482.81
571.756	468.47
571.955	974.32
572.155	286.2
572.354	1318.38
572.554	280.06
572.753	822.77
572.953	765.43
573.152	476.66
573.351	423.42
573.551	800.24
573.75	402.94
573.95	484.86
574.149	198.14
574.348	710.13
574.548	611.83
574.747	433.66
574.946	312.83
575.146	980.47
575.345	228.86
575.544	675.32
575.744	314.88
575.943	511.48
576.142	470.52
576.342	636.41
576.541	663.03
576.74	534.01
576.939	531.96
577.138	341.5
577.338	566.78
577.537	634.36
577.736	538.1
577.935	345.59
578.134	185.85
578.333	679.41
578.533	458.23
578.732	306.68
578.931	351.74
579.13	1207.79
579.329	169.47
579.528	1224.17
579.727	388.6
579.926	243.2
580.125	390.65
580.324	308.73
580.523	257.53
580.722	230.91
580.921	462.33
581.12	421.37
581.319	249.34
581.518	433.66
581.717	148.99
581.916	228.86
582.115	192
582.314	413.18
582.513	130.56
582.712	587.26
582.911	87.55
583.109	347.64
583.308	124.41
583.507	552.44
583.706	155.13
583.905	316.92
584.104	376.31
584.302	163.33
584.501	134.65
584.7	275.96
584.899	337.4
585.098	232.96
585.296	163.33
585.495	470.52
585.694	265.72
585.892	202.24
586.091	146.94
586.29	208.38
586.488	169.47
586.687	368.12
586.886	73.21
587.084	415.23
587.283	163.33
587.482	235
587.68	415.23
587.879	437.75
588.077	202.24
588.276	198.14
588.475	273.92
588.673	261.63
588.872	433.66
589.07	364.03
589.269	425.47
589.467	396.79
589.666	257.53
589.864	374.27
590.063	216.57
590.261	542.2
590.46	333.31
590.658	488.95
590.857	241.15
591.055	658.93
591.253	222.72
591.452	714.23
591.65	280.06
591.848	392.7
592.047	278.01
592.245	388.6
592.444	177.66
592.642	212.48
592.84	263.68
593.038	318.97
593.237	388.6
593.435	384.51
593.633	273.92
593.832	325.12
594.03	562.68
594.228	396.79
594.426	329.21
594.624	226.81
594.823	95.74
595.021	445.95
595.219	228.86
595.417	409.08
595.615	357.88
595.813	216.57
596.012	97.79
596.21	417.27
596.408	282.11
596.606	265.72
596.804	208.38
597.002	361.98
597.2	52.74
597.398	472.57
597.596	87.55
597.794	531.96
597.992	181.76
598.19	462.33
598.388	202.24
598.586	445.95
598.784	269.82
598.982	454.14
599.18	247.29
599.378	478.71
599.576	235
599.774	577.02
599.972	476.66
600.17	536.06
600.368	384.51
600.565	624.12
600.763	415.23
600.961	194.05
601.159	583.16
601.357	300.54
601.555	620.02
601.752	620.02
601.95	699.89
602.148	386.55
602.346	1293.8
602.544	1097.2
602.741	912.88
602.939	1381.87
603.137	792.05
603.334	1199.6
603.532	470.52
603.73	1756.65
603.927	753.14
604.125	1129.97
604.323	536.06
604.52	1672.68
604.718	646.65
604.916	1400.3
605.113	644.6
605.311	1308.14
605.508	560.63
605.706	884.21
605.904	570.87
606.101	728.56
606.299	443.9
606.496	562.68
606.694	312.83
606.891	695.8
607.089	230.91
607.286	595.45
607.484	466.42
607.681	556.54
607.879	525.82
608.076	548.34
608.273	355.83
608.471	708.09
608.668	398.84
608.866	554.49
609.063	400.89
609.26	605.69
609.458	550.39
609.655	499.19
609.852	292.35
610.05	556.54
610.247	525.82
610.444	476.66
610.642	456.19
610.839	433.66
611.036	478.71
611.233	376.31
611.431	579.06
611.628	198.14
611.825	429.56
612.022	464.38
612.22	308.73
612.417	269.82
612.614	263.68
612.811	390.65
613.008	261.63
613.205	284.16
613.402	239.1
613.6	523.77
613.797	359.93
613.994	486.9
614.191	333.31
614.388	488.95
614.585	93.69
614.782	501.24
614.979	65.02
615.176	364.03
615.373	50.69
615.57	400.89
615.767	60.93
615.964	376.31
616.161	69.12
616.358	306.68
616.555	122.37
616.752	314.88
616.949	192
617.146	304.64
617.343	75.26
617.539	318.97
617.736	151.04
617.933	155.13
618.13	157.18
618.327	290.3
618.524	148.99
618.721	247.29
618.917	89.6
619.114	284.16
619.311	87.55
619.508	251.39
619.704	200.19
619.901	196.09
620.098	56.83
620.295	159.23
620.491	140.8
620.688	32.26
620.885	196.09
621.081	187.9
621.278	130.56
621.475	306.68
621.671	169.47
621.868	192
622.065	142.85
622.261	290.3
622.458	91.65
622.655	122.37
622.851	7.68
623.048	165.37
623.244	112.13
623.441	122.37
623.637	181.76
623.834	239.1
624.03	140.8
624.227	146.94
624.423	138.75
624.62	230.91
624.816	11.78
625.013	19.97
625.209	65.02
625.406	200.19
625.602	34.3
625.798	58.88
625.995	62.98
626.191	173.57
626.388	28.16
626.584	60.93
626.78	144.89
626.977	130.56
627.173	52.74
627.369	122.37
627.566	48.64
627.762	122.37
627.958	36.35
628.154	103.93
628.351	101.89
628.547	77.31
628.743	77.31
628.939	153.09
629.136	-12.8
629.332	44.54
629.528	75.26
629.724	-16.9
629.92	54.78
630.116	153.09
630.313	42.5
630.509	83.45
630.705	128.51
630.901	-2.56
631.097	89.6
631.293	128.51
631.489	42.5
631.685	134.65
631.881	77.31
632.077	24.06
632.273	62.98
632.469	116.22
632.665	-45.57
632.861	40.45
633.057	5.63
633.253	15.87
633.449	9.73
633.645	30.21
633.841	34.3
634.037	165.37
634.233	-2.56
634.429	-20.99
634.625	73.21
634.821	50.69
635.017	81.41
635.212	-39.42
635.408	-0.51
635.604	103.93
635.8	114.17
635.996	46.59
636.191	79.36
636.387	-35.33
636.583	122.37
636.779	42.5
636.975	67.07
637.17	54.78
637.366	181.76
637.562	73.21
637.757	11.78
637.953	34.3
638.149	48.64
638.345	54.78
638.54	-61.95
638.736	169.47
638.931	-0.51
639.127	108.03
639.323	11.78
639.518	28.16
639.714	32.26
639.909	128.51
640.105	77.31
640.301	7.68
640.496	32.26
640.692	62.98
640.887	-94.72
641.083	-8.7
641.278	71.17
641.474	118.27
641.669	50.69
641.865	30.21
642.06	-10.75
642.256	83.45
642.451	-0.51
642.646	58.88
642.842	24.06
643.037	105.98
643.233	-16.9
643.428	38.4
643.623	-23.04
643.819	22.02
644.014	58.88
644.209	9.73
644.405	103.93
644.6	81.41
644.795	-4.61
644.99	9.73
645.186	79.36
645.381	50.69
645.576	118.27
645.771	19.97
645.967	-35.33
646.162	105.98
646.357	-109.05
646.552	112.13
646.747	5.63
646.943	15.87
647.138	-23.04
647.333	108.03
647.528	-27.14
647.723	136.7
647.918	-64
648.113	42.5
648.308	7.68
648.504	9.73
648.699	40.45
648.894	-25.09
649.089	-18.94
649.284	19.97
649.479	19.97
649.674	-47.62
649.869	99.84
650.064	89.6
650.259	-8.7
650.454	75.26
650.649	108.03
650.844	-49.66
651.038	50.69
651.233	38.4
651.428	-10.75
651.623	58.88
651.818	40.45
652.013	-29.18
652.208	73.21
652.403	-80.38
652.597	36.35
652.792	15.87
652.987	54.78
653.182	73.21
653.377	15.87
653.571	132.61
653.766	99.84
653.961	19.97
654.156	30.21
654.35	-41.47
654.545	28.16
654.74	77.31
654.935	93.69
655.129	-6.66
655.324	13.82
655.519	48.64
655.713	1.54
655.908	-121.34
656.102	-45.57
656.297	-8.7
656.492	77.31
656.686	9.73
656.881	91.65
657.075	-2.56
657.27	-43.52
657.464	-29.18
657.659	87.55
657.854	7.68
658.048	-84.48
658.243	65.02
658.437	-37.38
658.631	73.21
658.826	-27.14
659.02	-18.94
659.215	71.17
659.409	-16.9
659.604	-49.66
659.798	-8.7
659.992	22.02
660.187	52.74
660.381	60.93
660.576	-25.09
660.77	-57.86
660.964	-115.2
661.159	-37.38
661.353	-57.86
661.547	-31.23
661.742	97.79
661.936	19.97
662.13	9.73
662.324	7.68
662.519	142.85
662.713	17.92
662.907	-49.66
663.101	-43.52
663.295	81.41
663.49	-25.09
663.684	-43.52
663.878	7.68
664.072	-51.71
664.266	60.93
664.46	26.11
664.654	-23.04
664.849	15.87
665.043	-20.99
665.237	-55.81
665.431	-55.81
665.625	13.82
665.819	13.82
666.013	110.08
666.207	-59.9
666.401	138.75
666.595	-27.14
666.789	132.61
666.983	73.21
667.177	-43.52
667.371	34.3
667.565	-33.28
667.759	50.69
667.953	-2.56
668.147	7.68
668.34	-14.85
668.534	-70.14
668.728	46.59
668.922	30.21
669.116	-49.66
669.31	-96.77
669.504	-61.95
669.697	54.78
669.891	3.58
670.085	36.35
670.279	48.64
670.473	-82.43
670.666	-6.66
670.86	7.68
671.054	24.06
671.248	-16.9
671.441	67.07
671.635	19.97
671.829	-94.72
672.022	24.06
672.216	19.97
672.41	69.12
672.603	112.13
672.797	-10.75
672.99	54.78
673.184	-23.04
673.378	-14.85
673.571	-45.57
673.765	15.87
673.958	122.37
674.152	9.73
674.345	48.64
674.539	-27.14
674.733	17.92
674.926	9.73
675.12	-160.25
675.313	-41.47
675.506	67.07
675.7	-20.99
675.893	-20.99
676.087	110.08
676.28	62.98
676.474	-6.66
676.667	-80.38
676.86	-12.8
677.054	-49.66
677.247	9.73
677.441	116.22
677.634	15.87
677.827	67.07
678.02	34.3
678.214	-10.75
678.407	-35.33
678.6	-94.72
678.794	-92.67
678.987	-43.52
679.18	1.54
679.373	-10.75
679.567	79.36
679.76	26.11
679.953	-45.57
680.146	-186.88
680.339	46.59
680.533	40.45
680.726	-47.62
680.919	58.88
681.112	42.5
681.305	9.73
681.498	-0.51
681.691	58.88
681.884	-4.61
682.077	-84.48
682.271	22.02
682.464	56.83
682.657	-27.14
682.85	-12.8
683.043	17.92
683.236	48.64
683.429	83.45
683.622	-4.61
683.815	52.74
684.008	75.26
684.201	22.02
684.393	-10.75
684.586	-33.28
684.779	-4.61
684.972	-41.47
685.165	38.4
685.358	65.02
685.551	15.87
685.744	5.63
685.937	97.79
686.129	-70.14
686.322	-8.7
686.515	19.97
686.708	-78.33
686.901	77.31
687.093	-10.75
687.286	32.26
687.479	-86.53
687.672	30.21
687.864	28.16
688.057	-23.04
688.25	38.4
688.442	19.97
688.635	87.55
688.828	17.92
689.02	32.26
689.213	-12.8
689.406	7.68
689.598	-49.66
689.791	48.64
689.984	-121.34
690.176	24.06
690.369	124.41
690.561	91.65
690.754	60.93
690.946	24.06
691.139	-35.33
691.331	46.59
691.524	9.73
691.716	19.97
691.909	9.73
692.101	-45.57
692.294	79.36
692.486	-68.09
692.679	116.22
692.871	7.68
693.063	-0.51
693.256	3.58
693.448	-49.66
693.641	40.45
693.833	-18.94
694.025	17.92
694.218	87.55
694.41	99.84
694.602	2323.93
694.795	12522.82
694.987	23037.09
695.179	32789.52
695.372	26440.81
695.564	18429.16
695.756	14447.91
695.948	8615.29
696.14	5422.51
696.333	1963.49
696.525	941.55
696.717	81.41
696.909	108.03
697.101	60.93
697.294	56.83
697.486	22.02
697.678	-92.67
697.87	9.73
698.062	-49.66
698.254	60.93
698.446	13.82
698.638	11.78
698.83	-37.38
699.022	-8.7
699.215	-41.47
699.407	-2.56
699.599	-107.01
699.791	91.65
699.983	-23.04
700.175	46.59
700.367	-4.61
700.558	-45.57
700.75	-6.66
700.942	-6.66
701.134	-74.24
701.326	26.11
701.518	116.22
701.71	-35.33
701.902	3.58
702.094	-92.67
702.286	-98.81
702.477	26.11
702.669	1.54
702.861	-39.42
703.053	24.06
703.245	-53.76
703.436	62.98
703.628	22.02
703.82	-2.56
704.012	77.31
704.203	-6.66
704.395	40.45
704.587	392.7
704.779	1390.06
704.97	10323.3
705.162	23186.59
705.354	26950.76
705.545	22738.09
705.737	18619.62
705.929	11777.36
706.12	9055.61
706.312	4646.33
706.503	2426.33
706.695	482.81
706.887	228.86
707.078	81.41
707.27	69.12
707.461	44.54
707.653	-33.28
707.844	-16.9
708.036	85.5
708.227	-53.76
708.419	36.35
708.61	165.37
708.802	32.26
708.993	13.82
709.185	56.83
709.376	22.02
709.567	-53.76
709.759	9.73
709.95	-47.62
710.141	126.46
710.333	-66.05
710.524	-2.56
710.716	30.21
710.907	71.17
711.098	30.21
711.289	-16.9
711.481	148.99
711.672	19.97
711.863	28.16
712.055	110.08
712.246	-74.24
712.437	11.78
712.628	-12.8
712.82	54.78
713.011	89.6
713.202	54.78
713.393	116.22
713.584	79.36
713.775	-14.85
713.967	73.21
714.158	75.26
714.349	-12.8
714.54	-55.81
714.731	44.54
714.922	-29.18
715.113	-35.33
715.304	32.26
715.495	-12.8
715.686	60.93
715.877	7.68
716.068	3.58
716.259	-33.28
716.45	38.4
716.641	-20.99
716.832	-20.99
717.023	-39.42
717.214	-29.18
717.405	-59.9
717.596	11.78
717.787	28.16
717.978	40.45
718.169	-12.8
718.36	11.78
718.55	-14.85
718.741	79.36
718.932	73.21
719.123	26.11
719.314	46.59
719.505	81.41
719.695	58.88
719.886	44.54
720.077	79.36
720.268	-35.33
720.458	-8.7
720.649	-10.75
720.84	-0.51
721.031	-33.28
721.221	-0.51
721.412	-70.14
721.603	-96.77
721.793	-6.66
721.984	-35.33
722.175	-12.8
722.365	108.03
722.556	-37.38
722.746	48.64
722.937	-20.99
723.128	-16.9
723.318	112.13
723.509	-0.51
723.699	-37.38
723.89	52.74
724.08	-33.28
724.271	-49.66
724.461	-88.57
724.652	32.26
724.842	-133.63
725.033	-37.38
725.223	-0.51
725.414	46.59
725.604	-20.99
725.794	765.43
725.985	2899.41
726.175	1222.13
726.366	898.55
726.556	83.45
726.746	-14.85
726.937	38.4
727.127	67.07
727.317	-104.96
727.508	-72.19
727.698	1.54
727.888	-8.7
728.079	-29.18
728.269	-35.33
728.459	42.5
728.649	34.3
728.84	-88.57
729.03	28.16
729.22	-31.23
729.41	9.73
729.6	9.73
729.791	22.02
729.981	-66.05
730.171	83.45
730.361	-68.09
730.551	-53.76
730.741	-37.38
730.931	-35.33
731.121	144.89
731.311	-35.33
731.502	-2.56
731.692	-25.09
731.882	17.92
732.072	22.02
732.262	-43.52
732.452	-45.57
732.642	56.83
732.832	22.02
733.022	-10.75
733.212	81.41
733.402	114.17
733.591	-27.14
733.781	42.5
733.971	-23.04
734.161	-55.81
734.351	-37.38
734.541	120.32
734.731	-14.85
734.921	-59.9
735.111	81.41
735.3	-2.56
735.49	32.26
735.68	-47.62
735.87	157.18
736.06	155.13
736.249	1693.16
736.439	3679.69
736.629	14388.52
736.819	27921.49
737.008	41921.41
737.198	43041.65
737.388	30229.55
737.577	24272.01
737.767	18566.37
737.957	12186.95
738.146	8965.5
738.336	3876.29
738.526	2319.84
738.715	849.4
738.905	159.23
739.094	65.02
739.284	112.13
739.474	46.59
739.663	58.88
739.853	77.31
740.042	24.06
740.232	-10.75
740.421	79.36
740.611	30.21
740.8	-20.99
740.99	40.45
741.179	-68.09
741.369	75.26
741.558	1.54
741.748	75.26
741.937	-143.87
742.126	62.98
742.316	36.35
742.505	-68.09
742.695	-57.86
742.884	85.5
743.073	-45.57
743.263	-20.99
743.452	42.5
743.641	24.06
743.831	19.97
744.02	-129.53
744.209	108.03
744.398	-53.76
744.588	-0.51
744.777	-35.33
744.966	73.21
745.155	54.78
745.345	30.21
745.534	-20.99
745.723	13.82
745.912	1.54
746.101	-104.96
746.29	-4.61
746.48	22.02
746.669	73.21
746.858	-61.95
747.047	-6.66
747.236	-33.28
747.425	105.98
747.614	-6.66
747.803	-31.23
747.992	116.22
748.181	52.74
748.37	499.19
748.559	2016.74
748.748	9844.07
748.937	20104.4
749.126	27982.93
749.315	29662.27
749.504	29207.62
749.693	26580.07
749.882	33790.97
750.071	41720.71
750.26	43578.22
750.449	38050.75
750.638	31781.92
750.826	21998.77
751.015	17958.13
751.204	11642.19
751.393	7695.75
751.582	3857.86
751.771	2072.03
751.959	417.27
752.148	456.19
752.337	173.57
752.526	103.93
752.714	7.68
752.903	13.82
753.092	120.32
753.281	-35.33
753.469	28.16
753.658	46.59
753.847	97.79
754.035	52.74
754.224	-35.33
754.413	114.17
754.601	58.88
754.79	38.4
754.979	-8.7
755.167	5.63
755.356	24.06
755.544	69.12
755.733	-12.8
755.921	30.21
756.11	-37.38
756.298	7.68
756.487	46.59
756.675	65.02
756.864	42.5
757.052	-29.18
757.241	75.26
757.429	38.4
757.618	-27.14
757.806	54.78
757.995	-18.94
758.183	60.93
758.371	56.83
758.56	19.97
758.748	-18.94
758.937	3.58
759.125	157.18
759.313	50.69
759.502	93.69
759.69	103.93
759.878	-64
760.066	-84.48
760.255	48.64
760.443	11.78
760.631	-14.85
760.819	46.59
761.008	136.7
761.196	562.68
761.384	2055.65
761.572	7658.89
761.761	16055.56
761.949	36127.7
762.137	63554.1
762.325	64332.33
762.513	64375.34
762.701	64287.28
762.889	48821.02
763.077	38316.98
763.266	28830.79
763.454	20483.27
763.642	13100.34
763.83	9137.52
764.018	4869.56
764.206	3018.19
764.394	1064.43
764.582	503.29
764.77	89.6
764.958	132.61
765.146	-16.9
765.334	46.59
765.522	50.69
765.71	42.5
765.898	17.92
766.085	-16.9
766.273	3.58
766.461	-90.62
766.649	32.26
766.837	-61.95
767.025	1.54
767.213	77.31
767.401	22.02
767.588	-2.56
767.776	-41.47
767.964	13.82
768.152	28.16
768.339	-115.2
768.527	67.07
768.715	56.83
768.903	40.45
769.09	-0.51
769.278	-16.9
769.466	-6.66
769.654	-35.33
769.841	-51.71
770.029	69.12
770.217	-41.47
770.404	-18.94
770.592	683.51
770.779	5705.13
770.967	17263.86
771.155	30671.92
771.342	36973.52
771.53	26539.12
771.717	21292.22
771.905	15865.1
772.092	10313.06
772.28	6426.01
772.467	4404.67
772.655	673.27
772.842	224.76
773.03	105.98
773.217	3.58
773.405	81.41
773.592	24.06
773.78	34.3
773.967	-16.9
774.154	-27.14
774.342	24.06
774.529	54.78
774.717	-61.95
774.904	50.69
775.091	13.82
775.279	65.02
775.466	36.35
775.653	-2.56
775.841	-115.2
776.028	-12.8
776.215	9.73
776.402	85.5
776.59	-64
776.777	-31.23
776.964	-96.77
777.151	103.93
777.338	-12.8
777.526	-20.99
777.713	-0.51
777.9	-74.24
778.087	-182.78
778.274	32.26
778.461	-96.77
778.649	36.35
778.836	19.97
779.023	126.46
779.21	-20.99
779.397	36.35
779.584	-72.19
779.771	44.54
779.958	-14.85
780.145	130.56
780.332	40.45
780.519	36.35
780.706	48.64
780.893	32.26
781.08	-39.42
781.267	-2.56
781.454	36.35
781.641	-37.38
781.828	24.06
782.015	97.79
782.202	-8.7
782.388	-33.28
782.575	9.73
782.762	9.73
782.949	9.73
783.136	-57.86
783.323	60.93
783.509	11.78
783.696	-37.38
783.883	138.75
784.07	24.06
784.257	62.98
784.443	52.74
784.63	-41.47
784.817	87.55
785.004	-2.56
785.19	-53.76
785.377	-64
785.564	-86.53
785.75	60.93
785.937	110.08
786.124	22.02
786.31	52.74
786.497	-25.09
786.683	-16.9
786.87	-29.18
787.057	28.16
787.243	7.68
787.43	-31.23
787.616	67.07
787.803	9.73
787.989	85.5
788.176	50.69
788.362	-31.23
788.549	-33.28
788.735	-76.29
788.922	89.6
789.108	97.79
789.295	69.12
789.481	103.93
789.668	1.54
789.854	-10.75
790.04	-27.14
790.227	77.31
790.413	7.68
790.599	17.92
790.786	-33.28
790.972	69.12
791.158	30.21
791.345	60.93
791.531	5.63
791.717	-27.14
791.904	-41.47
792.09	-27.14
792.276	75.26
792.462	-18.94
792.649	44.54
792.835	-76.29
793.021	34.3
793.207	42.5
793.393	4005.31
793.58	14200.1
793.766	23784.6
793.952	22375.59
794.138	19162.33
794.324	14089.51
794.51	8840.57
794.696	5094.83
794.882	3425.74
795.069	751.09
795.255	230.91
795.441	81.41
795.627	17.92
795.813	46.59
795.999	85.5
796.185	22.02
796.371	52.74
796.557	-72.19
796.743	5.63
796.929	58.88
797.115	-33.28
797.3	48.64
797.486	-72.19
797.672	-59.9
797.858	101.89
798.044	50.69
798.23	-0.51
798.416	97.79
798.602	-66.05
798.788	34.3
798.973	-47.62
799.159	11.78
799.345	2612.7
799.531	6127.01
799.717	9385.33
799.902	11216.21
800.088	14882.08
800.274	19883.22
800.46	30536.75
800.645	31024.17
800.831	22195.37
801.017	14202.15
801.202	11525.46
801.388	6589.85
801.574	3603.91
801.759	703.99
801.945	550.39
802.131	134.65
802.316	157.18
802.502	-18.94
802.687	-8.7
802.873	15.87
803.058	-43.52
803.244	85.5
803.43	-33.28
803.615	34.3
803.801	-29.18
803.986	69.12
804.172	-51.71
804.357	32.26
804.543	50.69
804.728	7.68
804.913	44.54
805.099	-8.7
805.284	-14.85
805.47	9.73
805.655	26.11
805.84	-84.48
806.026	65.02
806.211	-61.95
806.397	-18.94
806.582	38.4
806.767	-84.48
806.953	40.45
807.138	-12.8
807.323	-55.81
807.508	-35.33
807.694	-57.86
807.879	22.02
808.064	24.06
808.249	36.35
808.435	144.89
808.62	503.29
808.805	1904.1
808.99	8453.5
809.175	17294.58
809.361	27620.44
809.546	32879.63
809.731	37450.69
809.916	34542.58
810.101	33682.43
810.286	43860.83
810.471	60351.08
810.656	63560.25
810.841	58794.62
811.026	58380.93
811.211	49576.72
811.396	37049.29
811.581	29475.9
811.766	23680.15
811.951	17988.85
812.136	10927.45
812.321	8770.94
812.506	5791.14
812.691	3206.61
812.876	945.65
813.061	830.96
813.246	341.5
813.431	118.27
813.616	83.45
813.801	69.12
813.986	3.58
814.17	34.3
814.355	-61.95
814.54	58.88
814.725	48.64
814.91	-98.81
815.094	-4.61
815.279	24.06
815.464	28.16
815.649	-125.44
815.833	24.06
816.018	46.59
816.203	46.59
816.388	-66.05
816.572	-2.56
816.757	28.16
816.942	36.35
817.126	-29.18
817.311	46.59
817.496	-104.96
817.68	3.58
817.865	17.92
818.049	7.68
818.234	-115.2
818.419	-31.23
818.603	-39.42
818.788	-53.76
818.972	38.4
819.157	60.93
819.341	-23.04
819.526	44.54
819.71	-23.04
819.895	-43.52
820.079	54.78
820.264	38.4
820.448	17.92
820.633	-41.47
820.817	103.93
821.001	7.68
821.186	7.68
821.37	71.17
821.554	-8.7
821.739	-55.81
821.923	-121.34
822.108	77.31
822.292	56.83
822.476	-23.04
822.66	71.17
822.845	-4.61
823.029	32.26
823.213	52.74
823.398	42.5
823.582	118.27
823.766	58.88
823.95	-43.52
824.134	-82.43
824.319	32.26
824.503	-92.67
824.687	69.12
824.871	-8.7
825.055	-12.8
825.239	42.5
825.423	708.09
825.608	6655.39
825.792	8017.29
825.976	8244.61
826.16	6989.21
826.344	4662.71
826.528	943.6
826.712	464.38
826.896	30.21
827.08	13.82
827.264	44.54
827.448	22.02
827.632	-78.33
827.816	42.5
828	130.56
828.184	52.74
828.368	22.02
828.552	-20.99
828.736	-49.66
828.919	50.69
829.103	69.12
829.287	48.64
829.471	112.13
829.655	120.32
829.839	101.89
830.023	97.79
830.206	30.21
830.39	-18.94
830.574	-68.09
830.758	-2.56
830.941	62.98
831.125	56.83
831.309	50.69
831.493	-78.33
831.676	65.02
831.86	-8.7
832.044	-10.75
832.227	28.16
832.411	-20.99
832.595	-68.09
832.778	69.12
832.962	54.78
833.146	-51.71
833.329	7.68
833.513	-16.9
833.696	56.83
833.88	24.06
834.064	7.68
834.247	128.51
834.431	-31.23
834.614	-35.33
834.798	-14.85
834.981	-82.43
835.165	-43.52
835.348	1.54
835.532	50.69
835.715	50.69
835.898	-10.75
836.082	15.87
836.265	-43.52
836.449	56.83
836.632	-18.94
836.815	52.74
836.999	-53.76
837.182	-70.14
837.365	-45.57
837.549	38.4
837.732	26.11
837.915	-55.81
838.099	42.5
838.282	67.07
838.465	-55.81
838.648	42.5
838.832	-72.19
839.015	67.07
839.198	-2.56
839.381	34.3
839.565	-27.14
839.748	361.98
839.931	5393.84
840.114	13190.45
840.297	18613.48
840.48	15992.08
840.663	14605.6
840.847	12377.41
841.03	9172.34
841.213	5512.62
841.396	7347.6
841.579	10308.96
841.762	16502.02
841.945	20159.69
842.128	20245.71
842.311	17376.5
842.494	12162.37
842.677	6419.87
842.86	3636.68
843.043	2065.89
843.226	910.83
843.409	19.97
843.592	65.02
843.775	126.46
843.958	48.64
844.141	69.12
844.323	34.3
844.506	44.54
844.689	-37.38
844.872	110.08
845.055	-23.04
845.238	-43.52
845.42	7.68
845.603	-33.28
845.786	-12.8
845.969	30.21
846.152	118.27
846.334	85.5
846.517	32.26
846.7	-57.86
846.883	87.55
847.065	-76.29
847.248	-88.57
847.431	-39.42
847.613	-16.9
847.796	62.98
847.979	-31.23
848.161	73.21
848.344	-90.62
848.526	28.16
848.709	-74.24
848.892	62.98
849.074	-0.51
849.257	1.54
849.439	-14.85
849.622	26.11
849.804	-72.19
849.987	-84.48
850.169	36.35
850.352	-37.38
850.534	-49.66
850.717	-29.18
850.899	81.41
851.082	83.45
851.264	28.16
851.446	42.5
851.629	859.63
851.811	2336.22
851.994	1603.05
852.176	419.32
852.358	202.24
852.541	56.83
852.723	-61.95
852.905	-31.23
853.088	-49.66
853.27	-0.51
853.452	-14.85
853.635	-0.51
853.817	-29.18
853.999	24.06
854.181	48.64
854.363	67.07
854.546	-4.61
854.728	-27.14
854.91	81.41
855.092	28.16
855.274	-0.51
855.457	-156.16
855.639	-92.67
855.821	-51.71
856.003	1.54
856.185	-8.7
856.367	42.5
856.549	91.65
856.731	38.4
856.913	7.68
857.095	28.16
857.277	56.83
857.459	19.97
857.641	19.97
857.823	1.54
858.005	9.73
858.187	-23.04
858.369	48.64
858.551	19.97
858.733	11.78
858.915	58.88
859.097	28.16
859.279	-80.38
859.461	144.89
859.643	30.21
859.824	-2.56
860.006	32.26
860.188	79.36
860.37	-16.9
860.552	-82.43
860.734	5.63
860.915	-0.51
861.097	-51.71
861.279	42.5
861.461	83.45
861.642	22.02
861.824	-27.14
862.006	-90.62
862.188	34.3
862.369	140.8
862.551	-100.86
862.733	-2.56
862.914	-41.47
863.096	-2.56
863.278	-2.56
863.459	-29.18
863.641	-57.86
863.822	34.3
864.004	48.64
864.185	40.45
864.367	1.54
864.549	-6.66
864.73	38.4
864.912	-64
865.093	-33.28
865.275	-29.18
865.456	3.58
865.638	71.17
865.819	-0.51
866.001	-37.38
866.182	-104.96
866.363	26.11
866.545	-37.38
866.726	-57.86
866.908	32.26
867.089	-35.33
867.27	-23.04
867.452	95.74
867.633	-33.28
867.814	-12.8
867.996	-29.18
868.177	44.54
868.358	36.35
868.54	-94.72
868.721	-49.66
868.902	-35.33
869.083	-18.94
869.265	89.6
869.446	-12.8
869.627	3.58
869.808	-53.76
869.989	-102.91
870.171	-25.09
870.352	-0.51
870.533	-109.05
870.714	-35.33
870.895	32.26
871.076	65.02
871.257	-20.99
871.438	-25.09
871.619	-33.28
871.801	-20.99
871.982	65.02
872.163	108.03
872.344	-16.9
872.525	-16.9
872.706	30.21
872.887	42.5
873.068	-16.9
873.249	67.07
873.43	-14.85
873.61	-18.94
873.791	-47.62
873.972	26.11
874.153	-109.05
874.334	30.21
874.515	-23.04
874.696	67.07
874.877	-14.85
875.058	7.68
875.238	-78.33
875.419	44.54
875.6	-131.58
875.781	-100.86
875.962	32.26
876.142	34.3
876.323	-14.85
876.504	40.45
876.685	58.88
876.865	-84.48
877.046	7.68
877.227	1.54
877.407	-47.62
877.588	50.69
877.769	26.11
877.949	-29.18
878.13	-16.9
878.311	9.73
878.491	-57.86
878.672	-18.94
878.853	-72.19
879.033	13.82
879.214	36.35
879.394	-18.94
879.575	-23.04
879.755	-0.51
879.936	-41.47
880.116	-33.28
880.297	-37.38
880.477	-20.99
880.658	-16.9
880.838	-109.05
881.019	-33.28
881.199	24.06
881.38	13.82
881.56	-16.9
881.74	-70.14
881.921	-4.61
882.101	83.45
882.281	7.68
882.462	73.21
882.642	-51.71
882.822	17.92
883.003	-86.53
883.183	-115.2
883.363	-12.8
883.544	-29.18
883.724	-55.81
883.904	87.55
884.084	52.74
884.265	11.78
884.445	95.74
884.625	-10.75
884.805	5.63
884.985	28.16
885.166	-57.86
885.346	79.36
885.526	9.73
885.706	46.59
885.886	-31.23
886.066	7.68
886.246	-29.18
886.426	36.35
886.606	17.92
886.787	-33.28
886.967	5.63
887.147	22.02
887.327	151.04
887.507	-61.95
887.687	75.26
887.867	58.88
888.047	-18.94
888.227	1.54
888.406	75.26
888.586	44.54
888.766	-23.04
888.946	-94.72
889.126	50.69
889.306	19.97
889.486	65.02
889.666	-8.7
889.846	-16.9
890.025	50.69
890.205	-92.67
890.385	69.12
890.565	-43.52
890.745	32.26
890.924	-4.61
891.104	-51.71
891.284	50.69
891.464	13.82
891.643	71.17
891.823	-68.09
892.003	132.61
892.183	-33.28
892.362	-25.09
892.542	-16.9
892.722	3.58
892.901	83.45
893.081	19.97
893.26	-113.15
893.44	-92.67
893.62	91.65
893.799	-53.76
893.979	-18.94
894.158	-31.23
894.338	-35.33
894.517	-49.66
894.697	-4.61
894.877	13.82
895.056	11.78
895.236	-61.95
895.415	-16.9
895.594	140.8
895.774	42.5
895.953	46.59
896.133	-78.33
896.312	-29.18
896.492	-53.76
896.671	3.58
896.85	-0.51
897.03	-31.23
897.209	15.87
897.388	71.17
897.568	-10.75
897.747	26.11
897.926	-39.42
898.106	-27.14
898.285	-4.61
898.464	-39.42
898.643	-31.23
898.823	42.5
899.002	83.45
899.181	34.3
899.36	-39.42
899.54	30.21
899.719	38.4
899.898	36.35
900.077	52.74
900.256	-31.23
900.435	11.78
900.614	67.07
900.794	-10.75
900.973	-18.94
901.152	19.97
901.331	32.26
901.51	-76.29
901.689	46.59
901.868	-18.94
902.047	54.78
902.226	50.69
902.405	1.54
902.584	-43.52
902.763	89.6
902.942	3.58
903.121	-57.86
903.3	-70.14
903.479	-31.23
903.658	-59.9
903.837	-115.2
904.015	-35.33
904.194	67.07
904.373	34.3
904.552	-4.61
904.731	-51.71
904.91	-66.05
905.089	-145.92
905.267	15.87
905.446	-23.04
905.625	-16.9
905.804	7.68
905.982	95.74
906.161	-84.48
906.34	-47.62
906.519	7.68
906.697	-27.14
906.876	-74.24
907.055	-109.05
907.233	3.58
907.412	32.26
907.591	-4.61
907.769	28.16
907.948	-96.77
908.127	9.73
908.305	42.5
908.484	-45.57
908.662	-20.99
908.841	-4.61
909.019	-0.51
909.198	-6.66
909.377	-12.8
909.555	-29.18
909.734	-31.23
909.912	69.12
910.09	-53.76
910.269	32.26
910.447	-27.14
910.626	60.93
910.804	-45.57
910.983	-18.94
911.161	-61.95
911.339	-27.14
911.518	120.32
911.696	-92.67
911.875	1.54
912.053	-55.81
912.231	-84.48
912.41	-55.81
912.588	48.64
912.766	-74.24
912.944	89.6
913.123	1877.48
913.301	3538.38
913.479	751.09
913.657	99.84
913.836	24.06
914.014	-88.57
914.192	17.92
914.37	-61.95
914.548	93.69
914.727	22.02
914.905	-20.99
915.083	-25.09
915.261	-37.38
915.439	95.74
915.617	50.69
915.795	-14.85
915.973	-66.05
916.151	11.78
916.329	36.35
916.508	-12.8
916.686	-14.85
916.864	5.63
917.042	28.16
917.22	-49.66
917.398	9.73
917.575	44.54
917.753	-45.57
917.931	-96.77
918.109	-31.23
918.287	-18.94
918.465	81.41
918.643	-125.44
918.821	56.83
918.999	-66.05
919.177	93.69
919.354	-35.33
919.532	-64
919.71	-20.99
919.888	1.54
920.066	-166.4
920.243	19.97
920.421	36.35
920.599	87.55
920.777	-31.23
920.954	11.78
921.132	-10.75
921.31	-10.75
921.488	-72.19
921.665	-0.51
921.843	-12.8
922.021	-8.7
922.198	69.12
922.376	34.3
922.553	-8.7
922.731	22.02
922.909	-18.94
923.086	-6.66
923.264	-8.7
923.441	-25.09
923.619	-158.21
923.796	85.5
923.974	-45.57
924.152	-47.62
924.329	-104.96
924.507	-47.62
924.684	-27.14
924.861	50.69
925.039	30.21
925.216	-6.66
925.394	-184.83
925.571	13.82
925.749	19.97
925.926	-8.7
926.103	-49.66
926.281	-25.09
926.458	17.92
926.635	89.6
926.813	32.26
926.99	30.21
927.167	-10.75
927.345	118.27
927.522	-113.15
927.699	38.4
927.876	-8.7
928.054	56.83
928.231	32.26
928.408	110.08
928.585	13.82
928.763	5.63
928.94	-45.57
929.117	3.58
929.294	-86.53
929.471	3.58
929.648	-20.99
929.825	-12.8
930.003	17.92
930.18	-45.57
930.357	11.78
930.534	-78.33
930.711	-12.8
930.888	46.59
931.065	60.93
931.242	58.88
931.419	-47.62
931.596	30.21
931.773	44.54
931.95	13.82
932.127	11.78
932.304	-51.71
932.481	-14.85
932.658	9.73
932.835	-43.52
933.011	-12.8
933.188	-66.05
933.365	-8.7
933.542	-12.8
933.719	-41.47
933.896	5.63
934.073	-35.33
934.249	-25.09
934.426	-14.85
934.603	124.41
934.78	1.54
934.957	-31.23
935.133	-6.66
935.31	-43.52
935.487	30.21
935.664	-12.8
935.84	-2.56
936.017	-70.14
936.194	-25.09
936.37	-27.14
936.547	-20.99
936.724	-10.75
936.9	-47.62
937.077	-35.33
937.253	-49.66
937.43	-96.77
937.607	9.73
937.783	69.12
937.96	77.31
938.136	-55.81
938.313	17.92
938.489	22.02
938.666	-20.99
938.842	99.84
939.019	-27.14
939.195	-90.62
939.372	52.74
939.548	-88.57
939.725	19.97
939.901	-59.9
940.077	-20.99
940.254	65.02
940.43	-66.05
940.607	-20.99
940.783	-18.94
940.959	157.18
941.136	54.78
941.312	19.97
941.488	56.83
941.665	9.73
941.841	81.41
942.017	-113.15
942.193	50.69
942.37	3.58
942.546	19.97
942.722	-4.61
942.898	50.69
943.074	48.64
943.251	-68.09
943.427	44.54
943.603	-33.28
943.779	-20.99
943.955	13.82
944.131	-6.66
944.308	32.26
944.484	-49.66
944.66	-51.71
944.836	-86.53
945.012	11.78
945.188	38.4
945.364	-2.56
945.54	-18.94
945.716	85.5
945.892	15.87
946.068	-66.05
946.244	-25.09
946.42	15.87
946.596	-43.52
946.772	44.54
946.948	-33.28
947.124	-49.66
947.3	15.87
947.475	-37.38
947.651	118.27
947.827	-41.47
948.003	75.26
948.179	-43.52
948.355	-49.66
948.531	54.78
948.706	9.73
948.882	112.13
949.058	44.54
949.234	-18.94
949.409	-59.9
949.585	114.17
949.761	83.45
949.937	-8.7
950.112	38.4
950.288	-20.99
950.464	-88.57
950.639	-4.61
950.815	101.89
950.991	5.63
951.166	-35.33
951.342	26.11
951.518	-12.8
951.693	75.26
951.869	-37.38
952.044	62.98
952.22	15.87
952.395	32.26
952.571	-0.51
952.747	-86.53
952.922	40.45
953.098	-53.76
953.273	-135.68
953.448	28.16
953.624	-47.62
953.799	-41.47
953.975	54.78
954.15	30.21
954.326	28.16
954.501	157.18
954.676	-12.8
954.852	26.11
955.027	-23.04
955.203	-20.99
955.378	-2.56
955.553	65.02
955.729	73.21
955.904	-59.9
956.079	24.06
956.254	-82.43
956.43	-33.28
956.605	32.26
956.78	-39.42
956.955	13.82
957.131	93.69
957.306	44.54
957.481	-16.9
957.656	-59.9
957.831	34.3
958.007	99.84
958.182	-43.52
958.357	-16.9
958.532	-10.75
958.707	1.54
958.882	-84.48
959.057	79.36
959.232	44.54
959.407	58.88
959.582	83.45
959.757	-2.56
959.932	15.87
960.107	-41.47
960.282	38.4
960.457	-20.99
960.632	-27.14
960.807	-45.57
960.982	24.06
961.157	-6.66
961.332	-39.42
961.507	-117.25
961.682	-12.8
961.857	-72.19
962.032	19.97
962.206	15.87
962.381	17.92
962.556	1.54
962.731	-10.75
962.906	17.92
963.081	-2.56
963.255	30.21
963.43	101.89
963.605	-61.95
963.78	-0.51
963.954	-6.66
964.129	75.26
964.304	40.45
964.479	-0.51
964.653	-6.66
964.828	-113.15
965.003	17.92
965.177	-88.57
965.352	-66.05
965.526	54.78
965.701	28.16
965.876	-20.99
966.05	-90.62
966.225	138.75
966.399	-121.34
966.574	-14.85
966.748	54.78
966.923	17.92
967.098	50.69
967.272	-55.81
967.446	26.11
967.621	-47.62
967.795	67.07
967.97	-16.9
968.144	15.87
968.319	-0.51
968.493	62.98
968.668	-12.8
968.842	126.46
969.016	-45.57
969.191	11.78
969.365	5.63
969.539	-154.11
969.714	116.22
969.888	-59.9
970.062	-31.23
970.237	69.12
970.411	-16.9
970.585	22.02
970.759	-37.38
970.934	17.92
971.108	65.02
971.282	11.78
971.456	40.45
971.63	136.7
971.805	9.73
971.979	19.97
972.153	-20.99
972.327	-18.94
972.501	-4.61
972.675	-0.51
972.849	114.17
973.024	34.3
973.198	-2.56
973.372	-8.7
973.546	36.35
973.72	-18.94
973.894	-80.38
974.068	-6.66
974.242	-25.09
974.416	-10.75
974.59	30.21
974.764	-6.66
974.938	-37.38
975.112	85.5
975.286	7.68
975.46	34.3
975.633	50.69
975.807	85.5
975.981	-49.66
976.155	7.68
976.329	1.54
976.503	17.92
976.677	-72.19
976.85	-70.14
977.024	-20.99
977.198	-31.23
977.372	-35.33
977.546	-45.57
977.719	-190.97
977.893	9.73
978.067	118.27
978.241	-20.99
978.414	17.92
978.588	15.87
978.762	-113.15
978.935	-4.61
979.109	103.93
979.283	38.4
979.456	-43.52
979.63	-0.51
979.804	-94.72
979.977	67.07
980.151	-33.28
980.324	60.93
980.498	67.07
980.671	71.17
980.845	11.78
981.018	26.11
981.192	-86.53
981.365	19.97
981.539	17.92
981.712	32.26
981.886	17.92
982.059	26.11
982.233	85.5
982.406	42.5
982.58	5.63
982.753	30.21
982.926	52.74
983.1	-33.28
983.273	140.8
983.446	-45.57
983.62	48.64
983.793	30.21
983.966	-51.71
984.14	-27.14
984.313	-0.51
984.486	-121.34
984.66	-16.9
984.833	91.65
985.006	-94.72
985.179	-2.56
985.352	-35.33
985.526	24.06
985.699	-18.94
985.872	-35.33
986.045	-4.61
986.218	-35.33
986.391	-37.38
986.565	36.35
986.738	-80.38
986.911	-107.01
987.084	1.54
987.257	-90.62
987.43	-37.38
987.603	-16.9
987.776	-68.09
987.949	13.82
988.122	-0.51
988.295	65.02
988.468	-61.95
988.641	9.73
988.814	9.73
988.987	38.4
989.16	-29.18
989.333	28.16
989.506	38.4
989.679	83.45
989.852	-117.25
990.025	-4.61
990.197	-43.52
990.37	-139.77
990.543	13.82
990.716	24.06
990.889	-47.62
991.062	-20.99
991.234	-80.38
991.407	-10.75
991.58	-14.85
991.753	-0.51
991.925	-82.43
992.098	5.63
992.271	-66.05
992.444	75.26
992.616	-29.18
992.789	1.54
992.962	-57.86
993.134	44.54
993.307	-4.61
993.479	-33.28
993.652	-49.66
993.825	-16.9
993.997	-4.61
994.17	58.88
994.342	-45.57
994.515	62.98
994.688	-70.14
994.86	36.35
995.033	-8.7
995.205	34.3
995.378	1.54
995.55	40.45
995.723	13.82
995.895	17.92
996.067	-53.76
996.24	11.78
996.412	-16.9
996.585	19.97
996.757	19.97
996.929	73.21
997.102	89.6
997.274	-0.51
997.447	-76.29
997.619	15.87
997.791	-37.38
997.964	5.63
998.136	5.63
998.308	75.26
998.48	-49.66
998.653	40.45
998.825	-51.71
998.997	69.12
999.169	-14.85
999.342	54.78
999.514	17.92
999.686	32.26
999.858	-23.04
1000.03	-66.05
1000.202	48.64
1000.374	-6.66
1000.547	-14.85
1000.719	-88.57
1000.891	3.58
1001.063	79.36
1001.235	11.78
1001.407	-84.48
1001.579	-14.85
1001.751	-35.33
1001.923	36.35
1002.095	-25.09
1002.267	110.08
1002.439	60.93
1002.611	85.5
1002.783	-55.81
1002.955	28.16
1003.127	34.3
1003.299	-4.61
1003.471	85.5
1003.643	-64
1003.815	73.21
1003.986	52.74
1004.158	-80.38
1004.33	7.68
1004.502	-45.57
1004.674	-31.23
1004.846	-14.85
1005.017	-43.52
1005.189	-33.28
1005.361	44.54
1005.533	-66.05
1005.704	73.21
1005.876	-33.28
1006.048	-61.95
1006.22	22.02
1006.391	-45.57
1006.563	91.65
1006.735	48.64
1006.906	-23.04
1007.078	-76.29
1007.25	77.31
1007.421	11.78
1007.593	-47.62
1007.764	30.21
1007.936	5.63
1008.108	26.11
1008.279	-6.66
1008.451	26.11
1008.622	17.92
1008.794	-53.76
1008.965	-41.47
1009.137	-113.15
1009.308	32.26
1009.48	-49.66
1009.651	34.3
1009.823	-86.53
1009.994	-37.38
1010.165	-39.42
1010.337	71.17
1010.508	87.55
1010.68	-86.53
1010.851	-20.99
1011.022	36.35
1011.194	-64
1011.365	-2.56
1011.536	67.07
1011.708	-57.86
1011.879	-113.15
1012.05	30.21
1012.222	34.3
1012.393	-33.28
1012.564	-72.19
1012.735	-23.04
1012.906	-18.94
1013.078	36.35
1013.249	58.88
1013.42	71.17
1013.591	-45.57
1013.762	-20.99
1013.934	-25.09
1014.105	38.4
1014.276	-66.05
1014.447	-72.19
1014.618	81.41
1014.789	-47.62
1014.96	34.3
1015.131	-41.47
1015.302	71.17
1015.473	75.26
1015.644	36.35
1015.815	-64
1015.986	-74.24
1016.157	-16.9
1016.328	-27.14
1016.499	85.5
1016.67	-10.75
1016.841	22.02
1017.012	-45.57
1017.183	-49.66
1017.354	24.06
1017.525	69.12
1017.696	-39.42
1017.867	42.5
1018.037	11.78
1018.208	-98.81
1018.379	-55.81
1018.55	62.98
1018.721	56.83
1018.891	-8.7
1019.062	-37.38
1019.233	1.54
1019.404	85.5
1019.574	-102.91
1019.745	19.97
1019.916	-72.19
1020.087	30.21
1020.257	-43.52
1020.428	-82.43
1020.599	34.3
1020.769	-0.51
1020.94	60.93
1021.11	-74.24
1021.281	91.65
1021.452	85.5
1021.622	62.98
1021.793	11.78
1021.963	-49.66
1022.134	-70.14
1022.305	19.97
1022.475	-29.18
1022.646	-55.81
1022.816	-18.94
1022.987	-2.56
1023.157	-57.86
1023.327	13.82
1023.498	-55.81
1023.668	5.63
1023.839	-41.47
1024.009	69.12
1024.18	-102.91
1024.35	-41.47
1024.52	-6.66
1024.691	1.54
1024.861	-102.91
1025.031	-39.42
1025.202	7.68
1025.372	-4.61
1025.542	-16.9
1025.713	-6.66
1025.883	58.88
1026.053	-8.7
1026.223	-102.91
1026.394	22.02
1026.564	-68.09
1026.734	7.68
1026.904	-160.25
1027.074	-59.9
1027.245	44.54
1027.415	95.74
1027.585	69.12
1027.755	142.85
1027.925	-86.53
1028.095	42.5
1028.265	-33.28
1028.435	40.45
1028.606	28.16
1028.776	32.26
1028.946	3.58
1029.116	-31.23
1029.286	44.54
1029.456	-6.66
1029.626	-8.7
1029.796	157.18
1029.966	-59.9
1030.136	-84.48
1030.306	38.4
1030.475	11.78
1030.645	40.45
1030.815	44.54
1030.985	-53.76
1031.155	-10.75
1031.325	-55.81
1031.495	-18.94
1031.665	34.3
1031.835	50.69
1032.004	-18.94
1032.174	83.45
1032.344	-4.61
1032.514	69.12
1032.684	-0.51
1032.853	-51.71
1033.023	-29.18
1033.193	-113.15
1033.362	-102.91
1033.532	7.68
1033.702	34.3
1033.872	-35.33
1034.041	-12.8
1034.211	-45.57
1034.381	46.59
1034.55	17.92
1034.72	-25.09
1034.889	-37.38
1035.059	11.78
1035.229	-72.19
1035.398	-68.09
1035.568	11.78
1035.737	-98.81
1035.907	99.84
1036.076	73.21
1036.246	24.06
1036.415	19.97
1036.585	-4.61
1036.754	15.87
1036.924	28.16
1037.093	-12.8
1037.263	-57.86
1037.432	28.16
1037.601	-107.01
1037.771	-4.61
1037.94	58.88
1038.11	44.54
1038.279	-33.28
1038.448	89.6
1038.618	32.26
1038.787	-82.43
1038.956	99.84
1039.126	-45.57
1039.295	99.84
1039.464	15.87
1039.633	-45.57
1039.803	38.4
1039.972	91.65
1040.141	-29.18
1040.31	54.78
1040.479	-59.9
1040.649	32.26
1040.818	105.98
1040.987	124.41
1041.156	50.69
1041.325	-72.19
1041.494	-82.43
1041.663	-12.8
1041.833	-4.61
1042.002	-51.71
1042.171	-86.53
1042.34	-25.09
1042.509	32.26
1042.678	3.58
