Data from LSP60_S9_Subt2_16-04-13-448.txt Node
Date: Wed Aug 09 16:04:13 EDT 2023
User: Emmanuel
Spectrometer: USB4A00615
Scans to average: 1
Trigger mode: 1
Integration Time (sec): 1.300000E-2
Electric dark correction enabled: true
Boxcar width: 0
XAxis mode: Wavelengths
Number of Pixels in Spectrum: 3648
>>>>>Begin Spectral Data<<<<<
346.606	-133.46
346.818	-133.46
347.029	-133.46
347.241	85.67
347.452	134.82
347.664	9.9
347.876	26.28
348.087	-35.16
348.299	22.19
348.51	73.39
348.722	-18.77
348.933	-94.55
349.145	50.86
349.356	18.09
349.568	-76.12
349.779	69.29
349.991	-45.4
350.202	-31.06
350.414	22.19
350.625	-74.07
350.836	-2.39
351.048	7.85
351.259	7.85
351.471	18.09
351.682	32.43
351.893	-14.68
352.105	59.05
352.316	32.43
352.527	-37.2
352.739	-86.36
352.95	-22.87
353.161	-55.64
353.372	20.14
353.584	24.23
353.795	3.75
354.006	9.9
354.217	32.43
354.429	-59.73
354.64	-59.73
354.851	1.71
355.062	-53.59
355.274	-20.82
355.485	-29.01
355.696	-57.68
355.907	-49.49
356.118	-72.02
356.329	67.24
356.54	-14.68
356.752	-47.44
356.963	79.53
357.174	24.23
357.385	-14.68
357.596	67.24
357.807	-14.68
358.018	20.14
358.229	153.26
358.44	-29.01
358.651	38.57
358.862	-41.3
359.073	13.99
359.284	73.39
359.495	-0.34
359.706	3.75
359.917	18.09
360.128	69.29
360.339	34.47
360.55	1.71
360.761	9.9
360.972	-8.53
361.182	-10.58
361.393	63.15
361.604	97.96
361.815	3.75
362.026	46.76
362.237	-76.12
362.447	-0.34
362.658	-6.49
362.869	16.04
363.08	97.96
363.291	-31.06
363.501	120.49
363.712	38.57
363.923	-14.68
364.134	-2.39
364.344	-78.16
364.555	18.09
364.766	65.19
364.976	-53.59
365.187	-4.44
365.398	-8.53
365.608	11.95
365.819	-74.07
366.03	-14.68
366.24	100.01
366.451	-153.94
366.662	147.11
366.872	50.86
367.083	93.87
367.293	-92.5
367.504	-8.53
367.714	22.19
367.925	44.71
368.135	-61.78
368.346	24.23
368.557	32.43
368.767	81.58
368.977	-45.4
369.188	11.95
369.398	67.24
369.609	36.52
369.819	16.04
370.03	-53.59
370.24	95.91
370.451	24.23
370.661	59.05
370.871	77.48
371.082	34.47
371.292	138.92
371.502	18.09
371.713	42.67
371.923	38.57
372.133	52.91
372.344	100.01
372.554	1.71
372.764	26.28
372.975	-20.82
373.185	85.67
373.395	-63.83
373.605	13.99
373.816	18.09
374.026	50.86
374.236	-10.58
374.446	85.67
374.656	-33.11
374.867	20.14
375.077	-16.73
375.287	81.58
375.497	-26.96
375.707	77.48
375.917	-53.59
376.127	46.76
376.338	42.67
376.548	-26.96
376.758	-22.87
376.968	85.67
377.178	128.68
377.388	-24.92
377.598	-31.06
377.808	-88.4
378.018	110.25
378.228	-31.06
378.438	91.82
378.648	-39.25
378.858	145.06
379.068	-31.06
379.278	44.71
379.488	-31.06
379.698	-39.25
379.908	-20.82
380.118	-12.63
380.327	-37.2
380.537	-53.59
380.747	-51.54
380.957	50.86
381.167	9.9
381.377	-26.96
381.587	54.95
381.796	54.95
382.006	-18.77
382.216	20.14
382.426	30.38
382.636	32.43
382.845	-31.06
383.055	102.06
383.265	100.01
383.475	65.19
383.684	7.85
383.894	124.58
384.104	5.8
384.313	89.77
384.523	71.34
384.733	52.91
384.942	32.43
385.152	34.47
385.362	-51.54
385.571	-22.87
385.781	32.43
385.991	-20.82
386.2	67.24
386.41	7.85
386.619	122.54
386.829	163.5
387.038	-18.77
387.248	73.39
387.457	151.21
387.667	73.39
387.876	97.96
388.086	-10.58
388.295	20.14
388.505	77.48
388.714	13.99
388.924	-31.06
389.133	155.3
389.343	-41.3
389.552	-8.53
389.762	54.95
389.971	11.95
390.18	50.86
390.39	69.29
390.599	52.91
390.808	61.1
391.018	79.53
391.227	108.2
391.436	-6.49
391.646	122.54
391.855	79.53
392.064	-2.39
392.274	200.36
392.483	87.72
392.692	83.63
392.901	-16.73
393.111	-14.68
393.32	16.04
393.529	165.54
393.738	97.96
393.947	50.86
394.157	202.41
394.366	140.97
394.575	97.96
394.784	26.28
394.993	46.76
395.202	71.34
395.411	89.77
395.62	181.93
395.83	134.82
396.039	22.19
396.248	110.25
396.457	28.33
396.666	24.23
396.875	7.85
397.084	110.25
397.293	89.77
397.502	26.28
397.711	114.34
397.92	167.59
398.129	38.57
398.338	91.82
398.547	65.19
398.756	85.67
398.965	136.87
399.174	140.97
399.382	106.15
399.591	-41.3
399.8	50.86
400.009	54.95
400.218	165.54
400.427	93.87
400.636	63.15
400.844	87.72
401.053	177.83
401.262	298.66
401.471	560.8
401.68	544.42
401.888	458.4
402.097	241.32
402.306	28.33
402.515	179.88
402.723	71.34
402.932	220.84
403.141	63.15
403.35	9.9
403.558	24.23
403.767	77.48
403.976	22.19
404.184	36.52
404.393	171.69
404.602	69.29
404.81	235.18
405.019	458.4
405.227	278.18
405.436	214.7
405.645	52.91
405.853	65.19
406.062	-10.58
406.27	245.41
406.479	52.91
406.687	3.75
406.896	-18.77
407.104	272.04
407.313	224.94
407.521	491.17
407.73	1341.08
407.938	1324.69
408.147	321.19
408.355	282.28
408.563	317.09
408.772	48.81
408.98	112.3
409.189	177.83
409.397	173.74
409.605	32.43
409.814	317.09
410.022	202.41
410.23	192.17
410.439	276.13
410.647	890.53
410.855	372.39
411.064	102.06
411.272	145.06
411.48	229.03
411.688	91.82
411.897	-4.44
412.105	198.31
412.313	237.22
412.521	104.11
412.73	224.94
412.938	145.06
413.146	5.8
413.354	212.65
413.562	214.7
413.77	382.63
413.979	380.58
414.187	683.68
414.395	212.65
414.603	93.87
414.811	175.78
415.019	747.17
415.227	335.53
415.435	265.89
415.643	267.94
415.851	847.52
416.059	624.29
416.267	1760.91
416.475	2485.89
416.683	2635.39
416.891	859.81
417.099	1425.04
417.307	2680.45
417.515	2172.55
417.723	738.98
417.931	1066.65
418.139	1226.39
418.347	321.19
418.555	442.02
418.763	1142.43
418.971	792.22
419.179	468.64
419.386	679.58
419.594	1234.58
419.802	1435.28
420.01	1013.4
420.218	2516.61
420.426	5058.14
420.633	3315.32
420.841	3751.54
421.049	2698.88
421.257	2643.59
421.464	1345.17
421.672	1685.14
421.88	1621.65
422.088	1140.38
422.295	800.41
422.503	585.38
422.711	884.38
422.918	530.08
423.126	313
423.334	349.86
423.541	593.57
423.749	26.28
423.956	292.52
424.164	511.65
424.372	403.11
424.579	485.03
424.787	847.52
424.994	609.95
425.202	442.02
425.409	212.65
425.617	464.55
425.824	886.43
426.032	646.82
426.239	1005.21
426.447	2094.73
426.654	2711.17
426.862	1377.94
427.069	3466.87
427.277	3298.94
427.484	3782.26
427.692	2227.85
427.899	2504.32
428.106	2539.14
428.314	1605.27
428.521	978.59
428.728	902.81
428.936	1052.31
429.143	827.04
429.351	679.58
429.558	2027.15
429.765	2860.67
429.972	1201.82
430.18	724.64
430.387	2895.49
430.594	2944.64
430.801	1734.29
431.009	1672.85
431.216	1074.84
431.423	841.37
431.63	167.59
431.838	409.25
432.045	536.23
432.252	775.84
432.459	384.68
432.666	396.96
432.873	1107.61
433.081	994.97
433.288	859.81
433.495	943.77
433.702	2975.36
433.909	1707.66
434.116	1359.51
434.323	1140.38
434.53	2410.12
434.737	2805.38
434.944	2416.26
435.151	1889.93
435.358	2041.48
435.565	1222.3
435.772	431.78
435.979	605.86
436.186	1570.45
436.393	538.27
436.6	446.12
436.807	630.43
437.014	1324.69
437.221	769.69
437.428	880.29
437.635	911
437.841	1332.89
438.048	1123.99
438.255	429.73
438.462	706.21
438.669	1605.27
438.876	851.61
439.082	642.72
439.289	794.27
439.496	1244.82
439.703	581.28
439.91	837.28
440.116	1797.78
440.323	1875.6
440.53	878.24
440.737	1375.89
440.943	1978
441.15	2358.92
441.357	1531.54
441.563	972.44
441.77	786.08
441.977	2100.87
442.183	1730.19
442.39	1326.74
442.597	2533
442.803	2602.63
443.01	2332.3
443.216	1339.03
443.423	1033.88
443.63	2147.98
443.836	2385.54
444.043	1617.55
444.249	1113.75
444.456	2416.26
444.662	2018.96
444.869	1091.23
445.075	1271.45
445.282	2229.9
445.488	1713.81
445.695	1988.24
445.901	671.39
446.107	2242.18
446.314	2166.41
446.52	2647.68
446.727	1511.06
446.933	1521.3
447.139	1801.87
447.346	2184.84
447.552	1021.6
447.759	1357.46
447.965	1496.72
448.171	2031.24
448.378	1861.26
448.584	2182.79
448.79	1961.61
448.996	1701.52
449.203	1730.19
449.409	2127.5
449.615	1552.02
449.821	1820.3
450.028	1398.42
450.234	1558.16
450.44	1539.73
450.646	2057.87
450.852	1803.92
451.059	1439.38
451.265	2133.64
451.471	2346.63
451.677	3106.43
451.883	1658.51
452.089	1119.9
452.295	1609.36
452.502	1107.61
452.708	2156.17
452.914	1216.15
453.12	2457.22
453.326	1730.19
453.532	2969.21
453.738	1406.61
453.944	1185.43
454.15	1271.45
454.356	2928.25
454.562	1986.19
454.768	1644.18
454.974	1193.62
455.18	1873.55
455.386	1668.75
455.592	1175.19
455.798	847.52
456.003	1181.34
456.209	1257.11
456.415	988.83
456.621	947.87
456.827	1539.73
457.033	911
457.239	1144.47
457.444	265.89
457.65	1210.01
457.856	827.04
458.062	1437.33
458.268	407.2
458.473	927.39
458.679	1171.1
458.885	1980.04
459.091	1234.58
459.296	1627.79
459.502	503.46
459.708	1552.02
459.914	868
460.119	2070.16
460.325	499.36
460.531	1009.31
460.736	1492.63
460.942	1298.07
461.147	951.96
461.353	1015.45
461.559	450.21
461.764	1382.04
461.97	790.17
462.175	915.1
462.381	777.89
462.587	947.87
462.792	487.08
462.998	1054.36
463.203	646.82
463.409	1631.89
463.614	1271.45
463.82	1359.51
464.025	976.54
464.231	1273.5
464.436	827.04
464.641	642.72
464.847	741.02
465.052	1070.75
465.258	585.38
465.463	2281.1
465.669	3286.65
465.874	2533
466.079	1410.71
466.285	1130.14
466.49	716.45
466.695	1386.13
466.901	829.09
467.106	1027.74
467.311	528.03
467.516	1412.76
467.722	2051.72
467.927	3073.66
468.132	1099.42
468.338	1472.15
468.543	1044.12
468.748	1091.23
468.953	671.39
469.158	2561.67
469.364	2141.83
469.569	2176.65
469.774	945.82
469.979	2043.53
470.184	1048.22
470.389	1873.55
470.594	1447.57
470.8	2197.13
471.005	1345.17
471.21	2549.38
471.415	1052.31
471.62	1650.32
471.825	1611.41
472.03	2152.07
472.235	2035.34
472.44	2320.01
472.645	1990.28
472.85	2035.34
473.055	2193.03
473.26	2285.19
473.465	1324.69
473.67	2176.65
473.875	1891.98
474.08	2270.86
474.285	1136.28
474.49	1941.13
474.695	1504.92
474.899	2434.69
475.104	2530.95
475.309	2985.6
475.514	1908.37
475.719	3063.42
475.924	2100.87
476.128	2317.96
476.333	2463.37
476.538	2590.34
476.743	1293.97
476.948	2184.84
477.152	2524.8
477.357	2485.89
477.562	1805.97
477.767	2248.33
477.971	1875.6
478.176	2172.55
478.381	1394.33
478.585	2494.08
478.79	1707.66
478.995	2510.47
479.199	2229.9
479.404	2293.38
479.609	1812.11
479.813	2770.56
480.018	2496.13
480.223	3608.18
480.427	3718.77
480.632	2840.19
480.836	1402.52
481.041	3262.07
481.245	2932.35
481.45	2760.32
481.654	2725.51
481.859	2121.35
482.063	2002.57
482.268	3208.83
482.472	3053.18
482.677	2610.82
482.881	2408.07
483.086	2223.75
483.29	2113.16
483.495	3241.59
483.699	3505.78
483.903	5701.2
484.108	4980.32
484.312	5072.48
484.517	3530.36
484.721	3333.75
484.925	2786.94
485.13	2737.79
485.334	1719.95
485.538	2813.57
485.743	2727.55
485.947	2846.34
486.151	2922.11
486.355	2555.52
486.56	2141.83
486.764	3311.22
486.968	3026.56
487.172	2406.02
487.377	2846.34
487.581	3038.84
487.785	2027.15
487.989	3767.92
488.193	4636.26
488.397	4564.58
488.602	3378.81
488.806	3235.45
489.01	2573.96
489.214	2862.72
489.418	2422.41
489.622	2346.63
489.826	1873.55
490.03	2952.83
490.234	2590.34
490.438	2879.1
490.642	2780.8
490.846	1959.56
491.05	1683.09
491.254	2649.73
491.458	2090.63
491.662	3536.5
491.866	2082.44
492.07	1820.3
492.274	1752.72
492.478	2967.17
492.682	1953.42
492.886	3149.43
493.09	2350.73
493.294	1812.11
493.498	1490.58
493.701	2676.35
493.905	1842.83
494.109	2524.8
494.313	1969.8
494.517	2387.59
494.721	1978
494.924	2700.93
495.128	1924.75
495.332	2897.53
495.536	2158.22
495.739	1982.09
495.943	1912.46
496.147	2057.87
496.351	1742.48
496.554	3044.99
496.758	1779.34
496.962	1635.99
497.165	1148.57
497.369	2449.03
497.573	2670.21
497.776	4540.01
497.98	2672.26
498.184	2320.01
498.387	2592.39
498.591	2410.12
498.794	2029.2
498.998	2770.56
499.202	1519.25
499.405	1756.82
499.609	1582.74
499.812	1750.67
500.016	2641.54
500.219	5498.45
500.423	2989.69
500.626	2541.19
500.83	2004.62
501.033	3049.08
501.237	3102.33
501.44	3767.92
501.643	1732.24
501.847	2008.72
502.05	1306.26
502.254	1992.33
502.457	2147.98
502.66	2926.21
502.864	1392.28
503.067	1635.99
503.271	1425.04
503.474	1285.78
503.677	1990.28
503.88	2180.75
504.084	1187.48
504.287	1769.1
504.49	1765.01
504.694	2852.48
504.897	5488.21
505.1	5348.95
505.303	2856.58
505.507	3008.12
505.71	1394.33
505.913	1955.47
506.116	1121.95
506.319	2588.29
506.522	4462.18
506.726	4277.87
506.929	2844.29
507.132	2498.18
507.335	751.26
507.538	1189.53
507.741	2125.45
507.944	1232.54
508.147	1304.21
508.35	2311.82
508.553	956.06
508.756	1355.41
508.959	1058.46
509.163	1377.94
509.366	1117.85
509.569	2600.58
509.771	956.06
509.974	1922.7
510.177	1607.31
510.38	2016.91
510.583	1693.33
510.786	1939.09
510.989	1666.71
511.192	2066.06
511.395	890.53
511.598	1232.54
511.801	980.64
512.004	1953.42
512.206	1642.13
512.409	2504.32
512.612	1257.11
512.815	1863.31
513.018	1316.5
513.22	1795.73
513.423	1257.11
513.626	1875.6
513.829	1586.83
514.032	2428.55
514.234	1586.83
514.437	1535.64
514.64	1980.04
514.842	1791.63
515.045	1703.57
515.248	2117.26
515.45	1455.76
515.653	1902.22
515.856	1345.17
516.058	1244.82
516.261	2201.23
516.464	1242.78
516.666	1048.22
516.869	2680.45
517.071	1439.38
517.274	2018.96
517.477	1001.12
517.679	1889.93
517.882	2496.13
518.084	2344.58
518.287	1871.5
518.489	2991.74
518.692	2164.36
518.894	2227.85
519.097	1891.98
519.299	1803.92
519.501	2799.23
519.704	3296.89
519.906	2987.65
520.109	3772.02
520.311	1218.2
520.514	2244.23
520.716	1836.69
520.918	2039.44
521.121	2643.59
521.323	2776.7
521.525	1801.87
521.728	3765.87
521.93	2573.96
522.132	2590.34
522.335	2025.1
522.537	2743.94
522.739	1859.21
522.941	2848.38
523.144	1537.68
523.346	2352.77
523.548	1762.96
523.75	2522.76
523.952	1885.84
524.155	1738.38
524.357	1713.81
524.559	2377.35
524.761	1631.89
524.963	3124.86
525.165	1611.41
525.368	2715.27
525.57	2305.67
525.772	2381.45
525.974	2172.55
526.176	2303.62
526.378	1568.4
526.58	2313.86
526.782	1658.51
526.984	2383.49
527.186	1638.03
527.388	1345.17
527.59	1539.73
527.792	2459.27
527.994	1478.29
528.196	2674.31
528.398	1341.08
528.6	2281.1
528.802	839.33
529.004	1310.36
529.206	1427.09
529.408	2678.4
529.609	1648.27
529.811	2918.01
530.013	1570.45
530.215	2256.52
530.417	1570.45
530.619	1732.24
530.821	1959.56
531.022	1687.18
531.224	1773.2
531.426	3509.88
531.628	1685.14
531.829	2477.7
532.031	1799.82
532.233	1500.82
532.435	1476.24
532.636	1130.14
532.838	1961.61
533.04	2174.6
533.241	1541.78
533.443	2772.61
533.645	2014.86
533.846	1941.13
534.048	2025.1
534.25	2137.74
534.451	2313.86
534.653	1818.25
534.855	1547.92
535.056	2748.03
535.258	1373.85
535.459	2772.61
535.661	1375.89
535.862	2021
536.064	1279.64
536.265	1599.12
536.467	1300.12
536.668	1861.26
536.87	1498.77
537.071	2657.92
537.273	1934.99
537.474	2320.01
537.676	2027.15
537.877	1748.62
538.078	1326.74
538.28	1439.38
538.481	1363.61
538.683	2002.57
538.884	706.21
539.085	2864.77
539.287	1779.34
539.488	2141.83
539.689	1111.71
539.891	1990.28
540.092	1463.96
540.293	1605.27
540.495	1466
540.696	1504.92
540.897	1296.02
541.098	1889.93
541.3	1742.48
541.501	2033.29
541.702	2227.85
541.903	2035.34
542.104	1785.49
542.306	1799.82
542.507	1678.99
542.708	2741.89
542.909	1291.93
543.11	2502.28
543.311	708.26
543.512	1601.17
543.713	2045.58
543.915	1842.83
544.116	1861.26
544.317	2530.95
544.518	1709.71
544.719	1937.04
544.92	1169.05
545.121	1662.61
545.322	1242.78
545.523	2059.92
545.724	1822.35
545.925	1418.9
546.126	1891.98
546.327	2997.88
546.528	2246.28
546.729	2444.93
546.929	1693.33
547.13	2637.44
547.331	1375.89
547.532	2188.94
547.733	1697.42
547.934	1769.1
548.135	1896.08
548.336	2797.18
548.536	2377.35
548.737	4048.49
548.938	2127.5
549.139	2780.8
549.34	2107.02
549.54	2944.64
549.741	2076.3
549.942	1904.27
550.143	798.37
550.343	2188.94
550.544	2049.68
550.745	3599.99
550.945	1685.14
551.146	2510.47
551.347	2084.49
551.547	2199.18
551.748	1801.87
551.949	2414.21
552.149	2332.3
552.35	1562.26
552.551	1939.09
552.751	1775.25
552.952	1306.26
553.152	2156.17
553.353	1224.34
553.553	2297.48
553.754	1988.24
553.954	1855.12
554.155	1926.8
554.356	2383.49
554.556	2090.63
554.756	2145.93
554.957	2715.27
555.157	1820.3
555.358	2051.72
555.558	2537.09
555.759	1177.24
555.959	1805.97
556.159	1703.57
556.36	1902.22
556.56	1459.86
556.761	2344.58
556.961	2367.11
557.161	2156.17
557.362	2436.74
557.562	2403.97
557.762	1799.82
557.963	3337.85
558.163	1547.92
558.363	2242.18
558.563	1879.69
558.764	2098.83
558.964	1762.96
559.164	1797.78
559.364	1848.97
559.565	1754.77
559.765	2242.18
559.965	1523.35
560.165	2268.81
560.365	2555.52
560.565	1722
560.766	3268.22
560.966	1826.45
561.166	1269.4
561.366	2307.72
561.566	1984.14
561.766	2029.2
561.966	2260.62
562.166	2029.2
562.366	2471.56
562.566	2201.23
562.766	1740.43
562.966	1117.85
563.166	2651.78
563.366	986.78
563.566	2541.19
563.766	1828.49
563.966	3219.07
564.166	2195.08
564.366	2186.89
564.566	1713.81
564.766	2838.14
564.966	1109.66
565.166	2913.92
565.366	1650.32
565.565	1746.58
565.765	968.35
565.965	1726.1
566.165	728.74
566.365	2817.66
566.565	1488.53
566.764	1810.06
566.964	1586.83
567.164	1427.09
567.364	980.64
567.564	1758.86
567.763	636.58
567.963	683.68
568.163	1457.81
568.362	1814.16
568.562	925.34
568.762	1959.56
568.961	728.74
569.161	1906.32
569.361	482.98
569.56	1988.24
569.76	1152.67
569.96	1259.16
570.159	982.68
570.359	1509.01
570.558	1119.9
570.758	1965.71
570.958	734.88
571.157	1431.19
571.357	1283.74
571.556	829.09
571.756	931.48
571.955	1638.03
572.155	366.25
572.354	2598.53
572.554	941.72
572.753	1277.59
572.953	1480.34
573.152	607.91
573.351	710.3
573.551	1363.61
573.75	648.86
573.95	650.91
574.149	306.85
574.348	1181.34
574.548	1085.08
574.747	650.91
574.946	622.24
575.146	1162.9
575.345	372.39
575.544	1031.83
575.744	480.93
575.943	994.97
576.142	980.64
576.342	1011.36
576.541	1320.6
576.74	781.98
576.939	1150.62
577.138	577.19
577.338	655.01
577.537	994.97
577.736	855.71
577.935	771.74
578.134	505.51
578.333	1173.14
578.533	753.31
578.732	853.66
578.931	280.23
579.13	1717.9
579.329	495.27
579.528	2205.32
579.727	767.65
579.926	489.12
580.125	927.39
580.324	409.25
580.523	558.75
580.722	462.5
580.921	544.42
581.12	829.09
581.319	429.73
581.518	560.8
581.717	372.39
581.916	306.85
582.115	482.98
582.314	673.44
582.513	356.01
582.712	730.78
582.911	237.22
583.109	839.33
583.308	202.41
583.507	779.93
583.706	509.6
583.905	444.07
584.104	997.02
584.302	257.7
584.501	374.44
584.7	327.33
584.899	186.02
585.098	577.19
585.296	296.61
585.495	661.15
585.694	302.76
585.892	466.6
586.091	194.22
586.29	442.02
586.488	331.43
586.687	943.77
586.886	206.5
587.084	751.26
587.283	206.5
587.482	538.27
587.68	405.16
587.879	937.63
588.077	351.91
588.276	331.43
588.475	609.95
588.673	536.23
588.872	814.75
589.07	511.65
589.269	605.86
589.467	726.69
589.666	224.94
589.864	788.13
590.063	323.24
590.261	728.74
590.46	652.96
590.658	667.3
590.857	296.61
591.055	954.01
591.253	530.08
591.452	1021.6
591.65	378.53
591.848	659.1
592.047	306.85
592.245	708.26
592.444	243.37
592.642	288.42
592.84	458.4
593.038	513.7
593.237	779.93
593.435	636.58
593.633	931.48
593.832	399.01
594.03	833.18
594.228	519.84
594.426	482.98
594.624	568.99
594.823	179.88
595.021	872.09
595.219	298.66
595.417	591.52
595.615	583.33
595.813	399.01
596.012	274.09
596.21	612
596.408	300.71
596.606	558.75
596.804	304.81
597.002	478.88
597.2	376.48
597.398	1015.45
597.596	190.12
597.794	708.26
597.992	157.35
598.19	663.2
598.388	347.81
598.586	583.33
598.784	388.77
598.982	452.26
599.18	511.65
599.378	478.88
599.576	485.03
599.774	482.98
599.972	536.23
600.17	777.89
600.368	509.6
600.565	683.68
600.763	534.18
600.961	462.5
601.159	681.63
601.357	353.96
601.555	841.37
601.752	857.76
601.95	829.09
602.148	433.83
602.346	1277.59
602.544	1142.43
602.741	794.27
602.939	1324.69
603.137	655.01
603.334	1218.2
603.532	644.77
603.73	1490.58
603.927	861.85
604.125	1138.33
604.323	452.26
604.52	1566.35
604.718	554.66
604.916	1410.71
605.113	487.08
605.311	1269.4
605.508	632.48
605.706	1132.19
605.904	636.58
606.101	796.32
606.299	503.46
606.496	632.48
606.694	448.16
606.891	900.76
607.089	435.88
607.286	614.05
607.484	571.04
607.681	517.79
607.879	882.33
608.076	640.67
608.273	407.2
608.471	693.92
608.668	446.12
608.866	409.25
609.063	513.7
609.26	540.32
609.458	599.71
609.655	655.01
609.852	517.79
610.05	794.27
610.247	591.52
610.444	630.43
610.642	593.57
610.839	454.31
611.036	632.48
611.233	528.03
611.431	642.72
611.628	437.92
611.825	497.32
612.022	345.77
612.22	401.06
612.417	413.35
612.614	366.25
612.811	388.77
613.008	372.39
613.205	298.66
613.402	319.14
613.6	911
613.797	308.9
613.994	577.19
614.191	587.43
614.388	700.06
614.585	167.59
614.782	554.66
614.979	315.05
615.176	351.91
615.373	-2.39
615.57	468.64
615.767	116.39
615.964	462.5
616.161	59.05
616.358	487.08
616.555	155.3
616.752	405.16
616.949	278.18
617.146	519.84
617.343	161.45
617.539	399.01
617.736	165.54
617.933	294.57
618.13	251.56
618.327	505.51
618.524	61.1
618.721	202.41
618.917	143.02
619.114	546.47
619.311	313
619.508	362.15
619.704	245.41
619.901	222.89
620.098	204.46
620.295	310.95
620.491	124.58
620.688	163.5
620.885	202.41
621.081	341.67
621.278	173.74
621.475	442.02
621.671	192.17
621.868	208.55
622.065	97.96
622.261	321.19
622.458	97.96
622.655	382.63
622.851	91.82
623.048	112.3
623.244	194.22
623.441	229.03
623.637	325.29
623.834	220.84
624.03	87.72
624.227	317.09
624.423	179.88
624.62	251.56
624.816	167.59
625.013	274.09
625.209	67.24
625.406	222.89
625.602	-53.59
625.798	200.36
625.995	16.04
626.191	208.55
626.388	147.11
626.584	255.65
626.78	34.47
626.977	124.58
627.173	38.57
627.369	333.48
627.566	194.22
627.762	210.6
627.958	120.49
628.154	128.68
628.351	122.54
628.547	153.26
628.743	212.65
628.939	269.99
629.136	52.91
629.332	263.85
629.528	95.91
629.724	243.37
629.92	132.78
630.116	206.5
630.313	40.62
630.509	108.2
630.705	192.17
630.901	116.39
631.097	65.19
631.293	40.62
631.489	5.8
631.685	183.98
631.881	102.06
632.077	130.73
632.273	69.29
632.469	245.41
632.665	132.78
632.861	24.23
633.057	9.9
633.253	159.4
633.449	67.24
633.645	13.99
633.841	140.97
634.037	59.05
634.233	38.57
634.429	200.36
634.625	71.34
634.821	147.11
635.017	196.26
635.212	18.09
635.408	128.68
635.604	28.33
635.8	124.58
635.996	67.24
636.191	130.73
636.387	42.67
636.583	24.23
636.779	32.43
636.975	153.26
637.17	42.67
637.366	132.78
637.562	93.87
637.757	50.86
637.953	54.95
638.149	-20.82
638.345	79.53
638.54	-18.77
638.736	50.86
638.931	79.53
639.127	134.82
639.323	71.34
639.518	140.97
639.714	-24.92
639.909	102.06
640.105	110.25
640.301	-0.34
640.496	140.97
640.692	173.74
640.887	7.85
641.083	147.11
641.278	75.43
641.474	196.26
641.669	-20.82
641.865	97.96
642.06	161.45
642.256	42.67
642.451	44.71
642.646	112.3
642.842	34.47
643.037	220.84
643.233	93.87
643.428	83.63
643.623	26.28
643.819	13.99
644.014	24.23
644.209	24.23
644.405	38.57
644.6	157.35
644.795	28.33
644.99	-16.73
645.186	97.96
645.381	57
645.576	24.23
645.771	77.48
645.967	44.71
646.162	-20.82
646.357	42.67
646.552	116.39
646.747	95.91
646.943	38.57
647.138	59.05
647.333	104.11
647.528	-231.76
647.723	231.08
647.918	18.09
648.113	57
648.308	11.95
648.504	-49.49
648.699	63.15
648.894	-6.49
649.089	118.44
649.284	-47.44
649.479	-53.59
649.674	9.9
649.869	-12.63
650.064	-12.63
650.259	89.77
650.454	-10.58
650.649	-43.35
650.844	26.28
651.038	3.75
651.233	24.23
651.428	-6.49
651.623	95.91
651.818	-18.77
652.013	91.82
652.208	-22.87
652.403	79.53
652.597	89.77
652.792	-106.84
652.987	247.46
653.182	13.99
653.377	-24.92
653.571	28.33
653.766	-117.08
653.961	46.76
654.156	89.77
654.35	-31.06
654.545	24.23
654.74	106.15
654.935	36.52
655.129	65.19
655.324	85.67
655.519	87.72
655.713	38.57
655.908	-37.2
656.102	59.05
656.297	46.76
656.492	118.44
656.686	24.23
656.881	40.62
657.075	-59.73
657.27	7.85
657.464	-18.77
657.659	108.2
657.854	-45.4
658.048	18.09
658.243	54.95
658.437	-31.06
658.631	-112.98
658.826	143.02
659.02	-10.58
659.215	28.33
659.409	-0.34
659.604	-29.01
659.798	-59.73
659.992	32.43
660.187	54.95
660.381	50.86
660.576	-59.73
660.77	128.68
660.964	-72.02
661.159	63.15
661.353	89.77
661.547	13.99
661.742	110.25
661.936	40.62
662.13	-14.68
662.324	38.57
662.519	-20.82
662.713	16.04
662.907	-76.12
663.101	69.29
663.295	48.81
663.49	-18.77
663.684	22.19
663.878	-41.3
664.072	61.1
664.266	114.34
664.46	-12.63
664.654	85.67
664.849	50.86
665.043	-4.44
665.237	7.85
665.431	-35.16
665.625	-31.06
665.819	79.53
666.013	44.71
666.207	-31.06
666.401	65.19
666.595	40.62
666.789	-51.54
666.983	-51.54
667.177	30.38
667.371	-35.16
667.565	50.86
667.759	-10.58
667.953	-43.35
668.147	1.71
668.34	34.47
668.534	-43.35
668.728	-61.78
668.922	-67.92
669.116	87.72
669.31	79.53
669.504	-67.92
669.697	-8.53
669.891	-22.87
670.085	28.33
670.279	44.71
670.473	138.92
670.666	108.2
670.86	-12.63
671.054	-31.06
671.248	173.74
671.441	-14.68
671.635	104.11
671.829	-29.01
672.022	-43.35
672.216	-41.3
672.41	44.71
672.603	-37.2
672.797	-14.68
672.99	57
673.184	16.04
673.378	57
673.571	42.67
673.765	28.33
673.958	91.82
674.152	126.63
674.345	147.11
674.539	40.62
674.733	44.71
674.926	40.62
675.12	71.34
675.313	85.67
675.506	11.95
675.7	1.71
675.893	77.48
676.087	44.71
676.28	11.95
676.474	108.2
676.667	40.62
676.86	-117.08
677.054	81.58
677.247	18.09
677.441	24.23
677.634	-31.06
677.827	24.23
678.02	34.47
678.214	52.91
678.407	-18.77
678.6	-12.63
678.794	91.82
678.987	-0.34
679.18	42.67
679.373	-29.01
679.567	63.15
679.76	-26.96
679.953	30.38
680.146	-35.16
680.339	38.57
680.533	95.91
680.726	5.8
680.919	69.29
681.112	38.57
681.305	-4.44
681.498	-76.12
681.691	30.38
681.884	65.19
682.077	-41.3
682.271	-90.45
682.464	91.82
682.657	22.19
682.85	-4.44
683.043	44.71
683.236	1.71
683.429	50.86
683.622	-121.17
683.815	20.14
684.008	3.75
684.201	32.43
684.393	42.67
684.586	11.95
684.779	-47.44
684.972	34.47
685.165	-170.32
685.358	-80.21
685.551	73.39
685.744	73.39
685.937	-2.39
686.129	57
686.322	81.58
686.515	-22.87
686.708	-31.06
686.901	3.75
687.093	-12.63
687.286	50.86
687.479	24.23
687.672	20.14
687.864	-20.82
688.057	32.43
688.25	-92.5
688.442	-55.64
688.635	1.71
688.828	30.38
689.02	16.04
689.213	97.96
689.406	-41.3
689.598	-45.4
689.791	34.47
689.984	13.99
690.176	-37.2
690.369	-67.92
690.561	-29.01
690.754	-4.44
690.946	91.82
691.139	-10.58
691.331	46.76
691.524	-20.82
691.716	104.11
691.909	-57.68
692.101	-69.97
692.294	7.85
692.486	-39.25
692.679	46.76
692.871	-39.25
693.063	1.71
693.256	40.62
693.448	22.19
693.641	-4.44
693.833	54.95
694.025	26.28
694.218	181.93
694.41	149.16
694.602	1744.53
694.795	9532.95
694.987	18163.09
695.179	29957.35
695.372	24669.49
695.564	18118.04
695.756	14585.29
695.948	8967.71
696.14	5848.66
696.333	2301.58
696.525	1160.86
696.717	183.98
696.909	9.9
697.101	167.59
697.294	16.04
697.486	11.95
697.678	108.2
697.87	112.3
698.062	-82.26
698.254	-14.68
698.446	-78.16
698.638	-2.39
698.83	63.15
699.022	71.34
699.215	-90.45
699.407	91.82
699.599	-12.63
699.791	44.71
699.983	97.96
700.175	42.67
700.367	89.77
700.558	61.1
700.75	87.72
700.942	120.49
701.134	-0.34
701.326	61.1
701.518	-59.73
701.71	34.47
701.902	-26.96
702.094	83.63
702.286	-115.03
702.477	79.53
702.669	46.76
702.861	-61.78
703.053	42.67
703.245	44.71
703.436	97.96
703.628	48.81
703.82	95.91
704.012	22.19
704.203	-63.83
704.395	-0.34
704.587	372.39
704.779	1064.6
704.97	8306.22
705.162	18888.07
705.354	22248.79
705.545	20645.23
705.737	17145.25
705.929	10896.9
706.12	8650.28
706.312	4337.26
706.503	2266.76
706.695	450.21
706.887	306.85
707.078	48.81
707.27	93.87
707.461	-33.11
707.653	63.15
707.844	67.24
708.036	46.76
708.227	87.72
708.419	-74.07
708.61	-41.3
708.802	71.34
708.993	46.76
709.185	13.99
709.376	-33.11
709.567	20.14
709.759	67.24
709.95	11.95
710.141	118.44
710.333	46.76
710.524	38.57
710.716	-129.36
710.907	52.91
711.098	-20.82
711.289	130.73
711.481	-16.73
711.672	11.95
711.863	-90.45
712.055	126.63
712.246	3.75
712.437	61.1
712.628	-43.35
712.82	-98.64
713.011	11.95
713.202	104.11
713.393	155.3
713.584	97.96
713.775	50.86
713.967	85.67
714.158	16.04
714.349	22.19
714.54	-74.07
714.731	40.62
714.922	22.19
715.113	114.34
715.304	28.33
715.495	85.67
715.686	16.04
715.877	26.28
716.068	147.11
716.259	-2.39
716.45	30.38
716.641	28.33
716.832	22.19
717.023	120.49
717.214	-37.2
717.405	5.8
717.596	26.28
717.787	20.14
717.978	40.62
718.169	-22.87
718.36	-65.88
718.55	50.86
718.741	-88.4
718.932	104.11
719.123	145.06
719.314	79.53
719.505	7.85
719.695	-59.73
719.886	54.95
720.077	-67.92
720.268	-43.35
720.458	20.14
720.649	-6.49
720.84	5.8
721.031	-0.34
721.221	69.29
721.412	118.44
721.603	5.8
721.793	1.71
721.984	18.09
722.175	83.63
722.365	34.47
722.556	9.9
722.746	36.52
722.937	3.75
723.128	9.9
723.318	106.15
723.509	61.1
723.699	-4.44
723.89	61.1
724.08	-57.68
724.271	46.76
724.461	-45.4
724.652	85.67
724.842	-69.97
725.033	93.87
725.223	67.24
725.414	-35.16
725.604	85.67
725.794	442.02
725.985	1818.25
726.175	1078.94
726.366	820.89
726.556	179.88
726.746	93.87
726.937	1.71
727.127	-65.88
727.317	50.86
727.508	26.28
727.698	-61.78
727.888	-0.34
728.079	61.1
728.269	-55.64
728.459	-88.4
728.649	-37.2
728.84	-22.87
729.03	77.48
729.22	-4.44
729.41	120.49
729.6	143.02
729.791	-63.83
729.981	-22.87
730.171	-4.44
730.361	87.72
730.551	7.85
730.741	5.8
730.931	95.91
731.121	63.15
731.311	81.58
731.502	50.86
731.692	-8.53
731.882	1.71
732.072	3.75
732.262	-14.68
732.452	-55.64
732.642	79.53
732.832	-24.92
733.022	44.71
733.212	71.34
733.402	11.95
733.591	-20.82
733.781	-104.79
733.971	34.47
734.161	-43.35
734.351	136.87
734.541	28.33
734.731	69.29
734.921	18.09
735.111	-39.25
735.3	48.81
735.49	57
735.68	32.43
735.87	106.15
736.06	97.96
736.249	1466
736.439	2944.64
736.629	12338.67
736.819	21960.03
737.008	35400.85
737.198	38331.49
737.388	27161.87
737.577	22967.63
737.767	18105.75
737.957	11267.58
738.146	8582.7
738.336	3743.35
738.526	2147.98
738.715	777.89
738.905	134.82
739.094	224.94
739.284	106.15
739.474	-2.39
739.663	-0.34
739.853	83.63
740.042	75.43
740.232	1.71
740.421	-2.39
740.611	79.53
740.8	151.21
740.99	5.8
741.179	5.8
741.369	22.19
741.558	48.81
741.748	46.76
741.937	50.86
742.126	79.53
742.316	48.81
742.505	71.34
742.695	42.67
742.884	-33.11
743.073	73.39
743.263	30.38
743.452	-55.64
743.641	93.87
743.831	-45.4
744.02	-0.34
744.209	18.09
744.398	54.95
744.588	-37.2
744.777	-41.3
744.966	-74.07
745.155	57
745.345	-12.63
745.534	44.71
745.723	93.87
745.912	61.1
746.101	95.91
746.29	-14.68
746.48	61.1
746.669	97.96
746.858	9.9
747.047	-53.59
747.236	-102.74
747.425	-0.34
747.614	79.53
747.803	102.06
747.992	120.49
748.181	155.3
748.37	386.72
748.559	1181.34
748.748	7808.56
748.937	15719.87
749.126	22271.32
749.315	25113.9
749.504	25347.37
749.693	23186.76
749.882	29945.06
750.071	34970.77
750.26	36990.07
750.449	33526.96
750.638	28923.12
750.826	20069.75
751.015	17720.73
751.204	11462.14
751.393	8011.31
751.582	4294.25
751.771	2528.9
751.959	673.44
752.148	693.92
752.337	124.58
752.526	91.82
752.714	11.95
752.903	52.91
753.092	108.2
753.281	61.1
753.469	32.43
753.658	69.29
753.847	-26.96
754.035	22.19
754.224	24.23
754.413	-10.58
754.601	-16.73
754.79	73.39
754.979	-0.34
755.167	-61.78
755.356	65.19
755.544	20.14
755.733	46.76
755.921	110.25
756.11	-49.49
756.298	-53.59
756.487	-37.2
756.675	104.11
756.864	-8.53
757.052	-6.49
757.241	-29.01
757.429	-14.68
757.618	32.43
757.806	110.25
757.995	-10.58
758.183	-43.35
758.371	-55.64
758.56	44.71
758.748	-8.53
758.937	-2.39
759.125	106.15
759.313	-57.68
759.502	46.76
759.69	-20.82
759.878	-65.88
760.066	-0.34
760.255	24.23
760.443	40.62
760.631	26.28
760.819	89.77
761.008	233.13
761.196	677.54
761.384	2068.11
761.572	7370.3
761.761	13432.29
761.949	29908.19
762.137	52368.27
762.325	62243.57
762.513	57652.03
762.701	56757.06
762.889	42822.69
763.077	34301.09
763.266	27323.66
763.454	19436.93
763.642	13024.74
763.83	9819.67
764.018	5205.6
764.206	3147.39
764.394	1429.14
764.582	777.89
764.77	282.28
764.958	437.92
765.146	173.74
765.334	11.95
765.522	67.24
765.71	18.09
765.898	-0.34
766.085	106.15
766.273	71.34
766.461	97.96
766.649	34.47
766.837	69.29
767.025	3.75
767.213	13.99
767.401	73.39
767.588	-51.54
767.776	79.53
767.964	-67.92
768.152	59.05
768.339	-18.77
768.527	-61.78
768.715	-88.4
768.903	20.14
769.09	3.75
769.278	24.23
769.466	30.38
769.654	59.05
769.841	102.06
770.029	32.43
770.217	36.52
770.404	-80.21
770.592	804.51
770.779	4136.56
770.967	13413.85
771.155	24608.05
771.342	31153.36
771.53	22193.5
771.717	19158.41
771.905	15197.63
772.092	9741.85
772.28	6035.02
772.467	4417.13
772.655	841.37
772.842	282.28
773.03	147.11
773.217	118.44
773.405	54.95
773.592	85.67
773.78	-35.16
773.967	-84.31
774.154	32.43
774.342	38.57
774.529	130.73
774.717	-31.06
774.904	-82.26
775.091	-2.39
775.279	104.11
775.466	147.11
775.653	-61.78
775.841	120.49
776.028	161.45
776.215	-24.92
776.402	18.09
776.59	34.47
776.777	20.14
776.964	26.28
777.151	-92.5
777.338	-47.44
777.526	54.95
777.713	69.29
777.9	-2.39
778.087	5.8
778.274	26.28
778.461	69.29
778.649	63.15
778.836	-14.68
779.023	44.71
779.21	7.85
779.397	220.84
779.584	112.3
779.771	44.71
779.958	59.05
780.145	18.09
780.332	32.43
780.519	-74.07
780.706	-12.63
780.893	95.91
781.08	-41.3
781.267	-12.63
781.454	-0.34
781.641	61.1
781.828	26.28
782.015	57
782.202	110.25
782.388	93.87
782.575	59.05
782.762	-72.02
782.949	79.53
783.136	16.04
783.323	13.99
783.509	61.1
783.696	77.48
783.883	-59.73
784.07	44.71
784.257	30.38
784.443	20.14
784.63	50.86
784.817	83.63
785.004	-41.3
785.19	30.38
785.377	9.9
785.564	44.71
785.75	63.15
785.937	38.57
786.124	36.52
786.31	-39.25
786.497	54.95
786.683	65.19
786.87	30.38
787.057	30.38
787.243	16.04
787.43	69.29
787.616	77.48
787.803	38.57
787.989	11.95
788.176	-94.55
788.362	75.43
788.549	-43.35
788.735	155.3
788.922	-12.63
789.108	5.8
789.295	13.99
789.481	57
789.668	28.33
789.854	1.71
790.04	97.96
790.227	-10.58
790.413	5.8
790.599	36.52
790.786	-45.4
790.972	32.43
791.158	-8.53
791.345	-78.16
791.531	77.48
791.717	130.73
791.904	-14.68
792.09	130.73
792.276	118.44
792.462	40.62
792.649	1.71
792.835	40.62
793.021	77.48
793.207	16.04
793.393	2776.7
793.58	11204.1
793.766	18417.04
793.952	16772.52
794.138	16428.46
794.324	12887.53
794.51	7601.72
794.696	4390.5
794.882	3282.55
795.069	794.27
795.255	370.34
795.441	89.77
795.627	57
795.813	42.67
795.999	81.58
796.185	-14.68
796.371	52.91
796.557	67.24
796.743	73.39
796.929	-0.34
797.115	50.86
797.3	75.43
797.486	190.12
797.672	157.35
797.858	67.24
798.044	-20.82
798.23	-100.69
798.416	143.02
798.602	-51.54
798.788	-37.2
798.973	-51.54
799.159	116.39
799.345	1945.23
799.531	4451.94
799.717	6874.69
799.902	9625.11
800.088	13045.22
800.274	16397.74
800.46	24677.68
800.645	26707.22
800.831	18998.66
801.017	12240.37
801.202	10962.44
801.388	6628.93
801.574	3419.77
801.759	1019.55
801.945	820.89
802.131	106.15
802.316	97.96
802.502	13.99
802.687	100.01
802.873	18.09
803.058	13.99
803.244	-6.49
803.43	71.34
803.615	-4.44
803.801	26.28
803.986	38.57
804.172	-33.11
804.357	32.43
804.543	-12.63
804.728	59.05
804.913	36.52
805.099	32.43
805.284	-61.78
805.47	79.53
805.655	-12.63
805.84	20.14
806.026	97.96
806.211	75.43
806.397	104.11
806.582	-4.44
806.767	-6.49
806.953	-43.35
807.138	151.21
807.323	85.67
807.508	38.57
807.694	61.1
807.879	71.34
808.064	-39.25
808.249	134.82
808.435	198.31
808.62	743.07
808.805	1750.67
808.99	7700.02
809.175	14996.93
809.361	22273.37
809.546	25445.67
809.731	32253.12
809.916	29048.05
810.101	28466.42
810.286	36764.79
810.471	50109.36
810.656	49550.26
810.841	46007.28
811.026	48458.7
811.211	42339.36
811.396	31159.5
811.581	26156.32
811.766	22021.47
811.951	16633.26
812.136	10548.75
812.321	8805.92
812.506	6354.51
812.691	3374.71
812.876	1328.79
813.061	1250.97
813.246	460.45
813.431	97.96
813.616	46.76
813.801	153.26
813.986	145.06
814.17	-6.49
814.355	38.57
814.54	69.29
814.725	95.91
814.91	20.14
815.094	57
815.279	38.57
815.464	102.06
815.649	24.23
815.833	71.34
816.018	11.95
816.203	-57.68
816.388	40.62
816.572	9.9
816.757	50.86
816.942	83.63
817.126	18.09
817.311	54.95
817.496	24.23
817.68	93.87
817.865	1.71
818.049	65.19
818.234	-41.3
818.419	18.09
818.603	48.81
818.788	-53.59
818.972	59.05
819.157	138.92
819.341	-43.35
819.526	-51.54
819.71	108.2
819.895	67.24
820.079	81.58
820.264	-14.68
820.448	52.91
820.633	-12.63
820.817	1.71
821.001	13.99
821.186	89.77
821.37	50.86
821.554	-16.73
821.739	3.75
821.923	-31.06
822.108	13.99
822.292	-6.49
822.476	-6.49
822.66	30.38
822.845	-12.63
823.029	93.87
823.213	13.99
823.398	-57.68
823.582	50.86
823.766	140.97
823.95	1.71
824.134	-41.3
824.319	-43.35
824.503	-22.87
824.687	-6.49
824.871	69.29
825.055	22.19
825.239	26.28
825.423	413.35
825.608	4906.59
825.792	5715.54
825.976	5965.39
826.16	5443.16
826.344	4025.97
826.528	757.41
826.712	425.64
826.896	16.04
827.08	61.1
827.264	11.95
827.448	28.33
827.632	-18.77
827.816	67.24
828	102.06
828.184	24.23
828.368	108.2
828.552	161.45
828.736	65.19
828.919	-67.92
829.103	-8.53
829.287	93.87
829.471	26.28
829.655	-76.12
829.839	138.92
830.023	93.87
830.206	93.87
830.39	-12.63
830.574	-16.73
830.758	-29.01
830.941	40.62
831.125	-22.87
831.309	-0.34
831.493	9.9
831.676	-96.6
831.86	-127.32
832.044	110.25
832.227	149.16
832.411	16.04
832.595	79.53
832.778	-104.79
832.962	71.34
833.146	36.52
833.329	-84.31
833.513	7.85
833.696	52.91
833.88	-31.06
834.064	77.48
834.247	52.91
834.431	-2.39
834.614	5.8
834.798	3.75
834.981	40.62
835.165	-20.82
835.348	-20.82
835.532	9.9
835.715	-47.44
835.898	87.72
836.082	79.53
836.265	-2.39
836.449	28.33
836.632	26.28
836.815	34.47
836.999	112.3
837.182	-53.59
837.365	28.33
837.549	32.43
837.732	79.53
837.915	118.44
838.099	13.99
838.282	-18.77
838.465	52.91
838.648	-59.73
838.832	-0.34
839.015	46.76
839.198	-16.73
839.381	13.99
839.565	24.23
839.748	218.79
839.931	4171.37
840.114	10606.09
840.297	14640.59
840.48	11517.43
840.663	11822.58
840.847	10479.11
841.03	7841.33
841.213	4507.24
841.396	6080.08
841.579	8898.08
841.762	13682.14
841.945	14958.02
842.128	15146.44
842.311	14058.96
842.494	9989.65
842.677	4761.19
842.86	2897.53
843.043	1814.16
843.226	913.05
843.409	100.01
843.592	42.67
843.775	13.99
843.958	22.19
844.141	3.75
844.323	-33.11
844.506	54.95
844.689	11.95
844.872	-4.44
845.055	-166.23
845.238	28.33
845.42	-49.49
845.603	50.86
845.786	120.49
845.969	-0.34
846.152	36.52
846.334	30.38
846.517	59.05
846.7	46.76
846.883	-18.77
847.065	3.75
847.248	-82.26
847.431	-55.64
847.613	67.24
847.796	1.71
847.979	112.3
848.161	63.15
848.344	28.33
848.526	50.86
848.709	77.48
848.892	77.48
849.074	9.9
849.257	-2.39
849.439	69.29
849.622	-43.35
849.804	28.33
849.987	-57.68
850.169	-29.01
850.352	-6.49
850.534	-45.4
850.717	30.38
850.899	36.52
851.082	81.58
851.264	-2.39
851.446	38.57
851.629	376.48
851.811	1220.25
851.994	466.6
852.176	159.4
852.358	75.43
852.541	-84.31
852.723	-45.4
852.905	7.85
853.088	48.81
853.27	59.05
853.452	-35.16
853.635	-18.77
853.817	3.75
853.999	89.77
854.181	-14.68
854.363	26.28
854.546	5.8
854.728	59.05
854.91	95.91
855.092	61.1
855.274	11.95
855.457	114.34
855.639	-41.3
855.821	-35.16
856.003	59.05
856.185	5.8
856.367	1.71
856.549	34.47
856.731	61.1
856.913	57
857.095	30.38
857.277	-45.4
857.459	42.67
857.641	-0.34
857.823	-112.98
858.005	-33.11
858.187	-24.92
858.369	102.06
858.551	-110.93
858.733	46.76
858.915	81.58
859.097	-37.2
859.279	-100.69
859.461	100.01
859.643	-35.16
859.824	-16.73
860.006	-6.49
860.188	13.99
860.37	26.28
860.552	-14.68
860.734	-33.11
860.915	-14.68
861.097	-39.25
861.279	114.34
861.461	-63.83
861.642	-2.39
861.824	9.9
862.006	30.38
862.188	-29.01
862.369	44.71
862.551	52.91
862.733	-96.6
862.914	-0.34
863.096	3.75
863.278	71.34
863.459	61.1
863.641	3.75
863.822	-6.49
864.004	32.43
864.185	52.91
864.367	7.85
864.549	-37.2
864.73	-39.25
864.912	95.91
865.093	22.19
865.275	-41.3
865.456	-6.49
865.638	52.91
865.819	110.25
866.001	-24.92
866.182	-16.73
866.363	112.3
866.545	-12.63
866.726	46.76
866.908	-10.58
867.089	32.43
867.27	-8.53
867.452	-51.54
867.633	18.09
867.814	126.63
867.996	65.19
868.177	9.9
868.358	-12.63
868.54	-35.16
868.721	-57.68
868.902	106.15
869.083	-4.44
869.265	108.2
869.446	22.19
869.627	-100.69
869.808	97.96
869.989	30.38
870.171	5.8
870.352	24.23
870.533	-94.55
870.714	24.23
870.895	32.43
871.076	46.76
871.257	85.67
871.438	16.04
871.619	7.85
871.801	97.96
871.982	73.39
872.163	85.67
872.344	-18.77
872.525	-84.31
872.706	-18.77
872.887	93.87
873.068	112.3
873.249	57
873.43	30.38
873.61	-49.49
873.791	73.39
873.972	118.44
874.153	65.19
874.334	57
874.515	-69.97
874.696	-8.53
874.877	34.47
875.058	-55.64
875.238	91.82
875.419	-33.11
875.6	73.39
875.781	-139.6
875.962	67.24
876.142	-10.58
876.323	69.29
876.504	-153.94
876.685	-63.83
876.865	97.96
877.046	-12.63
877.227	22.19
877.407	-29.01
877.588	57
877.769	79.53
877.949	50.86
878.13	38.57
878.311	-57.68
878.491	-33.11
878.672	36.52
878.853	26.28
879.033	69.29
879.214	-6.49
879.394	48.81
879.575	73.39
879.755	-12.63
879.936	-74.07
880.116	-80.21
880.297	-53.59
880.477	-4.44
880.658	-53.59
880.838	50.86
881.019	-72.02
881.199	-14.68
881.38	75.43
881.56	-67.92
881.74	11.95
881.921	79.53
882.101	54.95
882.281	-6.49
882.462	-31.06
882.642	-0.34
882.822	-94.55
883.003	-69.97
883.183	22.19
883.363	13.99
883.544	93.87
883.724	-31.06
883.904	-76.12
884.084	-29.01
884.265	-24.92
884.445	67.24
884.625	59.05
884.805	97.96
884.985	9.9
885.166	71.34
885.346	-76.12
885.526	67.24
885.706	126.63
885.886	22.19
886.066	59.05
886.246	5.8
886.426	48.81
886.606	110.25
886.787	-8.53
886.967	22.19
887.147	81.58
887.327	1.71
887.507	5.8
887.687	42.67
887.867	-20.82
888.047	134.82
888.227	93.87
888.406	71.34
888.586	-86.36
888.766	16.04
888.946	83.63
889.126	-12.63
889.306	13.99
889.486	32.43
889.666	-33.11
889.846	38.57
890.025	24.23
890.205	75.43
890.385	79.53
890.565	65.19
890.745	38.57
890.924	1.71
891.104	9.9
891.284	71.34
891.464	93.87
891.643	9.9
891.823	3.75
892.003	42.67
892.183	24.23
892.362	16.04
892.542	22.19
892.722	-43.35
892.901	-63.83
893.081	-6.49
893.26	-65.88
893.44	-65.88
893.62	95.91
893.799	-0.34
893.979	42.67
894.158	-96.6
894.338	32.43
894.517	-69.97
894.697	-57.68
894.877	34.47
895.056	-10.58
895.236	-39.25
895.415	54.95
895.594	167.59
895.774	34.47
895.953	1.71
896.133	-47.44
896.312	69.29
896.492	5.8
896.671	-86.36
896.85	7.85
897.03	81.58
897.209	104.11
897.388	22.19
897.568	26.28
897.747	24.23
897.926	5.8
898.106	83.63
898.285	93.87
898.464	-26.96
898.643	-69.97
898.823	48.81
899.002	-139.6
899.181	26.28
899.36	22.19
899.54	26.28
899.719	-37.2
899.898	42.67
900.077	104.11
900.256	-10.58
900.435	-8.53
900.614	-47.44
900.794	46.76
900.973	97.96
901.152	34.47
901.331	63.15
901.51	-86.36
901.689	167.59
901.868	-14.68
902.047	81.58
902.226	48.81
902.405	11.95
902.584	11.95
902.763	5.8
902.942	34.47
903.121	77.48
903.3	59.05
903.479	-20.82
903.658	67.24
903.837	65.19
904.015	9.9
904.194	28.33
904.373	118.44
904.552	-26.96
904.731	-33.11
904.91	87.72
905.089	22.19
905.267	108.2
905.446	-82.26
905.625	97.96
905.804	22.19
905.982	-4.44
906.161	-20.82
906.34	-31.06
906.519	87.72
906.697	-12.63
906.876	77.48
907.055	18.09
907.233	95.91
907.412	34.47
907.591	-43.35
907.769	30.38
907.948	-14.68
908.127	30.38
908.305	-26.96
908.484	50.86
908.662	20.14
908.841	-26.96
909.019	48.81
909.198	-6.49
909.377	-6.49
909.555	-43.35
909.734	87.72
909.912	95.91
910.09	59.05
910.269	26.28
910.447	75.43
910.626	122.54
910.804	-78.16
910.983	91.82
911.161	-151.89
911.339	-57.68
911.518	59.05
911.696	-94.55
911.875	52.91
912.053	81.58
912.231	-14.68
912.41	-0.34
912.588	87.72
912.766	-69.97
912.944	134.82
913.123	638.62
913.301	1390.23
913.479	302.76
913.657	48.81
913.836	102.06
914.014	-18.77
914.192	-0.34
914.37	-20.82
914.548	-47.44
914.727	93.87
914.905	34.47
915.083	69.29
915.261	61.1
915.439	-63.83
915.617	48.81
915.795	-22.87
915.973	-33.11
916.151	-35.16
916.329	-20.82
916.508	-80.21
916.686	-49.49
916.864	13.99
917.042	34.47
917.22	63.15
917.398	36.52
917.575	-2.39
917.753	22.19
917.931	28.33
918.109	-59.73
918.287	13.99
918.465	20.14
918.643	63.15
918.821	-26.96
918.999	1.71
919.177	79.53
919.354	83.63
919.532	67.24
919.71	-45.4
919.888	26.28
920.066	57
920.243	-4.44
920.421	34.47
920.599	61.1
920.777	26.28
920.954	52.91
921.132	30.38
921.31	143.02
921.488	93.87
921.665	-67.92
921.843	110.25
922.021	9.9
922.198	-37.2
922.376	-0.34
922.553	120.49
922.731	89.77
922.909	42.67
923.086	-6.49
923.264	93.87
923.441	46.76
923.619	-16.73
923.796	79.53
923.974	-41.3
924.152	-45.4
924.329	28.33
924.507	26.28
924.684	28.33
924.861	28.33
925.039	87.72
925.216	7.85
925.394	42.67
925.571	22.19
925.749	38.57
925.926	38.57
926.103	-20.82
926.281	69.29
926.458	50.86
926.635	11.95
926.813	-45.4
926.99	61.1
927.167	13.99
927.345	-41.3
927.522	13.99
927.699	89.77
927.876	95.91
928.054	-20.82
928.231	-49.49
928.408	-43.35
928.585	-37.2
928.763	-33.11
928.94	100.01
929.117	36.52
929.294	26.28
929.471	-18.77
929.648	-94.55
929.825	42.67
930.003	40.62
930.18	26.28
930.357	65.19
930.534	24.23
930.711	67.24
930.888	-31.06
931.065	28.33
931.242	-63.83
931.419	34.47
931.596	-31.06
931.773	-49.49
931.95	-22.87
932.127	44.71
932.304	44.71
932.481	61.1
932.658	7.85
932.835	81.58
933.011	-41.3
933.188	57
933.365	120.49
933.542	28.33
933.719	81.58
933.896	83.63
934.073	-84.31
934.249	102.06
934.426	-8.53
934.603	-74.07
934.78	44.71
934.957	-29.01
935.133	130.73
935.31	122.54
935.487	-31.06
935.664	85.67
935.84	16.04
936.017	38.57
936.194	194.22
936.37	-78.16
936.547	-61.78
936.724	26.28
936.9	-65.88
937.077	22.19
937.253	22.19
937.43	-35.16
937.607	16.04
937.783	-57.68
937.96	87.72
938.136	124.58
938.313	91.82
938.489	-65.88
938.666	73.39
938.842	48.81
939.019	13.99
939.195	-61.78
939.372	77.48
939.548	73.39
939.725	42.67
939.901	38.57
940.077	13.99
940.254	-29.01
940.43	1.71
940.607	-61.78
940.783	-106.84
940.959	-20.82
941.136	67.24
941.312	-59.73
941.488	-63.83
941.665	-86.36
941.841	40.62
942.017	138.92
942.193	130.73
942.37	26.28
942.546	18.09
942.722	30.38
942.898	-45.4
943.074	-4.44
943.251	122.54
943.427	-16.73
943.603	102.06
943.779	28.33
943.955	79.53
944.131	5.8
944.308	28.33
944.484	-12.63
944.66	97.96
944.836	-61.78
945.012	20.14
945.188	-22.87
945.364	130.73
945.54	-92.5
945.716	-51.54
945.892	40.62
946.068	73.39
946.244	-4.44
946.42	34.47
946.596	18.09
946.772	108.2
946.948	-82.26
947.124	-43.35
947.3	52.91
947.475	97.96
947.651	-35.16
947.827	59.05
948.003	-16.73
948.179	85.67
948.355	-84.31
948.531	-104.79
948.706	13.99
948.882	-6.49
949.058	-82.26
949.234	13.99
949.409	1.71
949.585	-121.17
949.761	-33.11
949.937	-8.53
950.112	-39.25
950.288	116.39
950.464	59.05
950.639	126.63
950.815	69.29
950.991	50.86
951.166	22.19
951.342	67.24
951.518	124.58
951.693	-53.59
951.869	-41.3
952.044	3.75
952.22	46.76
952.395	-72.02
952.571	65.19
952.747	16.04
952.922	-45.4
953.098	63.15
953.273	-0.34
953.448	-18.77
953.624	1.71
953.799	42.67
953.975	-47.44
954.15	34.47
954.326	-14.68
954.501	93.87
954.676	7.85
954.852	16.04
955.027	-37.2
955.203	-41.3
955.378	147.11
955.553	97.96
955.729	-6.49
955.904	-18.77
956.079	89.77
956.254	50.86
956.43	-6.49
956.605	57
956.78	-125.27
956.955	100.01
957.131	-20.82
957.306	-47.44
957.481	67.24
957.656	54.95
957.831	-37.2
958.007	46.76
958.182	30.38
958.357	97.96
958.532	-20.82
958.707	79.53
958.882	-8.53
959.057	52.91
959.232	18.09
959.407	36.52
959.582	116.39
959.757	87.72
959.932	-6.49
960.107	28.33
960.282	24.23
960.457	89.77
960.632	-65.88
960.807	26.28
960.982	57
961.157	-59.73
961.332	9.9
961.507	-59.73
961.682	-4.44
961.857	-2.39
962.032	38.57
962.206	-209.23
962.381	-10.58
962.556	-10.58
962.731	11.95
962.906	26.28
963.081	-6.49
963.255	48.81
963.43	-61.78
963.605	-43.35
963.78	-39.25
963.954	24.23
964.129	104.11
964.304	20.14
964.479	-18.77
964.653	-16.73
964.828	18.09
965.003	1.71
965.177	97.96
965.352	-6.49
965.526	65.19
965.701	63.15
965.876	46.76
966.05	-102.74
966.225	-6.49
966.399	13.99
966.574	1.71
966.748	20.14
966.923	16.04
967.098	61.1
967.272	-100.69
967.446	34.47
967.621	46.76
967.795	52.91
967.97	-20.82
968.144	38.57
968.319	-18.77
968.493	-26.96
968.668	-14.68
968.842	50.86
969.016	52.91
969.191	22.19
969.365	-2.39
969.539	-29.01
969.714	30.38
969.888	-43.35
970.062	-16.73
970.237	52.91
970.411	11.95
970.585	163.5
970.759	3.75
970.934	-67.92
971.108	38.57
971.282	30.38
971.456	-22.87
971.63	79.53
971.805	-59.73
971.979	52.91
972.153	-10.58
972.327	22.19
972.501	3.75
972.675	67.24
972.849	28.33
973.024	18.09
973.198	50.86
973.372	-80.21
973.546	40.62
973.72	9.9
973.894	-8.53
974.068	26.28
974.242	-16.73
974.416	9.9
974.59	-96.6
974.764	-35.16
974.938	-31.06
975.112	52.91
975.286	16.04
975.46	3.75
975.633	-61.78
975.807	-12.63
975.981	110.25
976.155	-37.2
976.329	13.99
976.503	48.81
976.677	57
976.85	69.29
977.024	-39.25
977.198	-20.82
977.372	30.38
977.546	73.39
977.719	-39.25
977.893	87.72
978.067	5.8
978.241	-8.53
978.414	-51.54
978.588	9.9
978.762	65.19
978.935	71.34
979.109	-2.39
979.283	83.63
979.456	161.45
979.63	-72.02
979.804	-14.68
979.977	30.38
980.151	-41.3
980.324	61.1
980.498	32.43
980.671	102.06
980.845	32.43
981.018	5.8
981.192	-29.01
981.365	71.34
981.539	24.23
981.712	-4.44
981.886	-26.96
982.059	-6.49
982.233	5.8
982.406	46.76
982.58	24.23
982.753	42.67
982.926	11.95
983.1	104.11
983.273	95.91
983.446	36.52
983.62	63.15
983.793	16.04
983.966	42.67
984.14	3.75
984.313	13.99
984.486	79.53
984.66	-84.31
984.833	161.45
985.006	-88.4
985.179	26.28
985.352	-22.87
985.526	26.28
985.699	-41.3
985.872	97.96
986.045	59.05
986.218	-20.82
986.391	22.19
986.565	63.15
986.738	-82.26
986.911	38.57
987.084	40.62
987.257	81.58
987.43	-65.88
987.603	22.19
987.776	5.8
987.949	-16.73
988.122	65.19
988.295	-84.31
988.468	-8.53
988.641	67.24
988.814	-45.4
988.987	-18.77
989.16	-35.16
989.333	-12.63
989.506	-14.68
989.679	-20.82
989.852	116.39
990.025	40.62
990.197	26.28
990.37	71.34
990.543	-78.16
990.716	-55.64
990.889	59.05
991.062	-69.97
991.234	-2.39
991.407	-92.5
991.58	52.91
991.753	-16.73
991.925	-26.96
992.098	-10.58
992.271	83.63
992.444	40.62
992.616	13.99
992.789	87.72
992.962	48.81
993.134	-22.87
993.307	-12.63
993.479	-12.63
993.652	-6.49
993.825	7.85
993.997	13.99
994.17	-12.63
994.342	-29.01
994.515	-106.84
994.688	3.75
994.86	3.75
995.033	16.04
995.205	116.39
995.378	24.23
995.55	-39.25
995.723	-39.25
995.895	65.19
996.067	3.75
996.24	38.57
996.412	1.71
996.585	-86.36
996.757	-0.34
996.929	-14.68
997.102	-8.53
997.274	-29.01
997.447	38.57
997.619	-10.58
997.791	114.34
997.964	-14.68
998.136	34.47
998.308	28.33
998.48	46.76
998.653	-0.34
998.825	-59.73
998.997	16.04
999.169	-61.78
999.342	9.9
999.514	-88.4
999.686	42.67
999.858	36.52
1000.03	83.63
1000.202	38.57
1000.374	-67.92
1000.547	34.47
1000.719	-57.68
1000.891	-37.2
1001.063	-8.53
1001.235	-33.11
1001.407	-49.49
1001.579	-26.96
1001.751	91.82
1001.923	-72.02
1002.095	24.23
1002.267	18.09
1002.439	-112.98
1002.611	-18.77
1002.783	20.14
1002.955	71.34
1003.127	-2.39
1003.299	-0.34
1003.471	-31.06
1003.643	97.96
1003.815	18.09
1003.986	42.67
1004.158	3.75
1004.33	46.76
1004.502	52.91
1004.674	61.1
1004.846	81.58
1005.017	-98.64
1005.189	61.1
1005.361	-47.44
1005.533	32.43
1005.704	95.91
1005.876	52.91
1006.048	46.76
1006.22	22.19
1006.391	-41.3
1006.563	-2.39
1006.735	3.75
1006.906	-127.32
1007.078	-184.66
1007.25	-65.88
1007.421	-18.77
1007.593	36.52
1007.764	-35.16
1007.936	143.02
1008.108	-12.63
1008.279	32.43
1008.451	-59.73
1008.622	114.34
1008.794	18.09
1008.965	140.97
1009.137	7.85
1009.308	50.86
1009.48	7.85
1009.651	63.15
1009.823	-35.16
1009.994	44.71
1010.165	-4.44
1010.337	-102.74
1010.508	-18.77
1010.68	91.82
1010.851	1.71
1011.022	-86.36
1011.194	-74.07
1011.365	-115.03
1011.536	-86.36
1011.708	22.19
1011.879	77.48
1012.05	54.95
1012.222	73.39
1012.393	128.68
1012.564	13.99
1012.735	26.28
1012.906	16.04
1013.078	50.86
1013.249	-33.11
1013.42	-2.39
1013.591	-22.87
1013.762	122.54
1013.934	32.43
1014.105	-74.07
1014.276	161.45
1014.447	11.95
1014.618	116.39
1014.789	54.95
1014.96	161.45
1015.131	20.14
1015.302	-29.01
1015.473	52.91
1015.644	61.1
1015.815	-108.88
1015.986	-53.59
1016.157	-26.96
1016.328	-0.34
1016.499	-59.73
1016.67	5.8
1016.841	-41.3
1017.012	-41.3
1017.183	18.09
1017.354	3.75
1017.525	61.1
1017.696	-39.25
1017.867	-49.49
1018.037	22.19
1018.208	97.96
1018.379	44.71
1018.55	28.33
1018.721	116.39
1018.891	9.9
1019.062	18.09
1019.233	24.23
1019.404	104.11
1019.574	26.28
1019.745	-112.98
1019.916	-90.45
1020.087	52.91
1020.257	-94.55
1020.428	-174.42
1020.599	48.81
1020.769	46.76
1020.94	3.75
1021.11	85.67
1021.281	-104.79
1021.452	124.58
1021.622	-53.59
1021.793	22.19
1021.963	20.14
1022.134	-86.36
1022.305	3.75
1022.475	-33.11
1022.646	198.31
1022.816	-14.68
1022.987	-65.88
1023.157	9.9
1023.327	32.43
1023.498	1.71
1023.668	26.28
1023.839	-33.11
1024.009	-131.41
1024.18	75.43
1024.35	-20.82
1024.52	83.63
1024.691	1.71
1024.861	48.81
1025.031	9.9
1025.202	28.33
1025.372	112.3
1025.542	-12.63
1025.713	38.57
1025.883	59.05
1026.053	73.39
1026.223	-29.01
1026.394	9.9
1026.564	3.75
1026.734	18.09
1026.904	30.38
1027.074	-24.92
1027.245	5.8
1027.415	24.23
1027.585	26.28
1027.755	20.14
1027.925	-190.8
1028.095	-43.35
1028.265	108.2
1028.435	-47.44
1028.606	-29.01
1028.776	-43.35
1028.946	-22.87
1029.116	-39.25
1029.286	-0.34
1029.456	-80.21
1029.626	-12.63
1029.796	-74.07
1029.966	-0.34
1030.136	-53.59
1030.306	-63.83
1030.475	7.85
1030.645	-96.6
1030.815	44.71
1030.985	-33.11
1031.155	46.76
1031.325	-47.44
1031.495	-39.25
1031.665	20.14
1031.835	91.82
1032.004	5.8
1032.174	-110.93
1032.344	44.71
1032.514	1.71
1032.684	30.38
1032.853	-12.63
1033.023	1.71
1033.193	75.43
1033.362	-69.97
1033.532	-12.63
1033.702	-18.77
1033.872	116.39
1034.041	-10.58
1034.211	97.96
1034.381	-119.12
1034.55	-18.77
1034.72	-24.92
1034.889	132.78
1035.059	30.38
1035.229	-16.73
1035.398	-18.77
1035.568	75.43
1035.737	-45.4
1035.907	-43.35
1036.076	83.63
1036.246	40.62
1036.415	-6.49
1036.585	-63.83
1036.754	73.39
1036.924	16.04
1037.093	52.91
1037.263	-55.64
1037.432	116.39
1037.601	5.8
1037.771	-133.46
1037.94	20.14
1038.11	-84.31
1038.279	-106.84
1038.448	-67.92
1038.618	-80.21
1038.787	-22.87
1038.956	-14.68
1039.126	-43.35
1039.295	-76.12
1039.464	11.95
1039.633	30.38
1039.803	-2.39
1039.972	202.41
1040.141	3.75
1040.31	-57.68
1040.479	93.87
1040.649	155.3
1040.818	-69.97
1040.987	-2.39
1041.156	65.19
1041.325	59.05
1041.494	-74.07
1041.663	9.9
1041.833	81.58
1042.002	104.11
1042.171	-76.12
1042.34	-92.5
1042.509	48.81
1042.678	-29.01
