Data from LSP61_S10_Subt2_16-07-58-033.txt Node
Date: Wed Aug 09 16:07:58 EDT 2023
User: Emmanuel
Spectrometer: USB4A00615
Scans to average: 1
Trigger mode: 1
Integration Time (sec): 1.300000E-2
Electric dark correction enabled: true
Boxcar width: 0
XAxis mode: Wavelengths
Number of Pixels in Spectrum: 3648
>>>>>Begin Spectral Data<<<<<
346.606	-113.66
346.818	-113.66
347.029	-113.66
347.241	87.04
347.452	173.05
347.664	-60.42
347.876	-3.07
348.087	-31.74
348.299	84.99
348.51	117.76
348.722	-25.6
348.933	-87.04
349.145	76.8
349.356	21.5
349.568	-87.04
349.779	7.17
349.991	-13.31
350.202	-44.03
350.414	60.42
350.625	-66.56
350.836	48.13
351.048	44.03
351.259	-25.6
351.471	15.36
351.682	56.32
351.893	46.08
352.105	64.51
352.316	17.41
352.527	29.7
352.739	-46.08
352.95	48.13
353.161	-29.7
353.372	56.32
353.584	37.89
353.795	9.22
354.006	164.86
354.217	-11.26
354.429	11.26
354.64	-60.42
354.851	-39.94
355.062	-48.13
355.274	23.55
355.485	-35.84
355.696	-39.94
355.907	-74.75
356.118	37.89
356.329	148.48
356.54	82.94
356.752	5.12
356.963	103.42
357.174	136.19
357.385	1.02
357.596	56.32
357.807	-27.65
358.018	35.84
358.229	132.09
358.44	13.31
358.651	25.6
358.862	9.22
359.073	74.75
359.284	3.07
359.495	17.41
359.706	-109.57
359.917	15.36
360.128	27.65
360.339	-27.65
360.55	70.65
360.761	80.89
360.972	37.89
361.182	-7.17
361.393	3.07
361.604	95.23
361.815	13.31
362.026	66.56
362.237	105.47
362.447	-48.13
362.658	91.13
362.869	44.03
363.08	13.31
363.291	62.46
363.501	44.03
363.712	31.74
363.923	52.22
364.134	64.51
364.344	-107.52
364.555	121.85
364.766	19.46
364.976	33.79
365.187	58.37
365.398	3.07
365.608	-21.5
365.819	35.84
366.03	29.7
366.24	31.74
366.451	-179.2
366.662	62.46
366.872	11.26
367.083	93.18
367.293	78.85
367.504	95.23
367.714	19.46
367.925	25.6
368.135	-62.46
368.346	74.75
368.557	7.17
368.767	82.94
368.977	-15.36
369.188	31.74
369.398	119.81
369.609	50.18
369.819	-21.5
370.03	5.12
370.24	138.24
370.451	41.98
370.661	130.05
370.871	62.46
371.082	95.23
371.292	130.05
371.502	-13.31
371.713	37.89
371.923	7.17
372.133	29.7
372.344	23.55
372.554	91.13
372.764	25.6
372.975	103.42
373.185	-1.02
373.395	60.42
373.605	-7.17
373.816	13.31
374.026	72.7
374.236	-52.22
374.446	41.98
374.656	15.36
374.867	89.09
375.077	15.36
375.287	136.19
375.497	33.79
375.707	9.22
375.917	23.55
376.127	64.51
376.338	29.7
376.548	56.32
376.758	54.27
376.968	146.43
377.178	115.71
377.388	62.46
377.598	66.56
377.808	-3.07
378.018	101.37
378.228	27.65
378.438	27.65
378.648	-62.46
378.858	117.76
379.068	7.17
379.278	41.98
379.488	-52.22
379.698	27.65
379.908	-52.22
380.118	70.65
380.327	46.08
380.537	-37.89
380.747	-13.31
380.957	99.33
381.167	-23.55
381.377	91.13
381.587	132.09
381.796	76.8
382.006	-95.23
382.216	115.71
382.426	50.18
382.636	50.18
382.845	-111.61
383.055	78.85
383.265	166.91
383.475	50.18
383.684	-11.26
383.894	46.08
384.104	1.02
384.313	87.04
384.523	87.04
384.733	54.27
384.942	50.18
385.152	21.5
385.362	3.07
385.571	39.94
385.781	35.84
385.991	39.94
386.2	68.61
386.41	-46.08
386.619	-9.22
386.829	166.91
387.038	-27.65
387.248	91.13
387.457	111.61
387.667	-35.84
387.876	54.27
388.086	31.74
388.295	44.03
388.505	187.39
388.714	82.94
388.924	46.08
389.133	99.33
389.343	3.07
389.552	60.42
389.762	54.27
389.971	-1.02
390.18	52.22
390.39	138.24
390.599	58.37
390.808	-13.31
391.018	111.61
391.227	44.03
391.436	-56.32
391.646	158.72
391.855	66.56
392.064	-54.27
392.274	142.33
392.483	111.61
392.692	11.26
392.901	21.5
393.111	82.94
393.32	50.18
393.529	128
393.738	50.18
393.947	7.17
394.157	166.91
394.366	132.09
394.575	27.65
394.784	70.65
394.993	7.17
395.202	54.27
395.411	91.13
395.62	111.61
395.83	117.76
396.039	15.36
396.248	136.19
396.457	31.74
396.666	39.94
396.875	-44.03
397.084	-17.41
397.293	21.5
397.502	25.6
397.711	-78.85
397.92	101.37
398.129	41.98
398.338	142.33
398.547	68.61
398.756	29.7
398.965	209.92
399.174	72.7
399.382	128
399.591	-50.18
399.8	25.6
400.009	9.22
400.218	72.7
400.427	-11.26
400.636	70.65
400.844	70.65
401.053	154.62
401.262	-9.22
401.471	117.76
401.68	1.02
401.888	107.52
402.097	128
402.306	-1.02
402.515	91.13
402.723	101.37
402.932	19.46
403.141	80.89
403.35	21.5
403.558	25.6
403.767	89.09
403.976	35.84
404.184	21.5
404.393	113.66
404.602	37.89
404.81	46.08
405.019	-3.07
405.227	99.33
405.436	15.36
405.645	78.85
405.853	39.94
406.062	17.41
406.27	154.62
406.479	-9.22
406.687	-9.22
406.896	-15.36
407.104	179.2
407.313	31.74
407.521	93.18
407.73	273.4
407.938	283.64
408.147	44.03
408.355	68.61
408.563	128
408.772	-3.07
408.98	156.67
409.189	144.38
409.397	134.14
409.605	27.65
409.814	138.24
410.022	76.8
410.23	132.09
410.439	101.37
410.647	160.77
410.855	25.6
411.064	160.77
411.272	99.33
411.48	193.53
411.688	37.89
411.897	13.31
412.105	95.23
412.313	111.61
412.521	-1.02
412.73	175.1
412.938	93.18
413.146	-89.09
413.354	148.48
413.562	78.85
413.77	171.01
413.979	160.77
414.187	142.33
414.395	70.65
414.603	17.41
414.811	44.03
415.019	271.36
415.227	240.64
415.435	148.48
415.643	148.48
415.851	306.17
416.059	244.73
416.267	1012.72
416.475	1805.28
416.683	1975.27
416.891	420.86
417.099	791.54
417.307	1123.31
417.515	824.31
417.723	340.99
417.931	435.19
418.139	537.59
418.347	148.48
418.555	121.85
418.763	478.2
418.971	353.27
419.179	146.43
419.386	324.6
419.594	893.94
419.802	742.39
420.01	601.08
420.218	1807.33
420.426	4142.02
420.633	2685.91
420.841	2552.79
421.049	1584.1
421.257	1663.97
421.464	644.09
421.672	713.72
421.88	599.03
422.088	297.98
422.295	283.64
422.503	162.81
422.711	224.25
422.918	154.62
423.126	78.85
423.334	41.98
423.541	46.08
423.749	-23.55
423.956	117.76
424.164	263.16
424.372	187.39
424.579	89.09
424.787	236.54
424.994	267.26
425.202	160.77
425.409	91.13
425.617	259.07
425.824	283.64
426.032	207.87
426.239	269.31
426.447	852.98
426.654	1283.05
426.862	519.16
427.069	1358.83
427.277	1610.73
427.484	2130.91
427.692	836.6
427.899	1164.27
428.106	1072.11
428.314	601.08
428.521	332.79
428.728	420.86
428.936	408.57
429.143	347.13
429.351	320.51
429.558	523.26
429.765	705.53
429.972	306.17
430.18	246.78
430.387	1319.92
430.594	971.76
430.801	576.5
431.009	525.3
431.216	279.55
431.423	279.55
431.63	99.33
431.838	136.19
432.045	179.2
432.252	381.95
432.459	175.1
432.666	150.53
432.873	609.27
433.081	365.56
433.288	357.37
433.495	236.54
433.702	1903.59
433.909	1008.62
434.116	738.29
434.323	568.31
434.53	1178.61
434.737	1201.13
434.944	1106.93
435.151	908.27
435.358	881.65
435.565	529.4
435.772	64.51
435.979	281.6
436.186	730.1
436.393	236.54
436.6	281.6
436.807	228.35
437.014	562.17
437.221	220.16
437.428	369.66
437.635	326.65
437.841	689.14
438.048	441.34
438.255	177.15
438.462	291.84
438.669	609.27
438.876	279.55
439.082	257.02
439.289	207.87
439.496	441.34
439.703	265.21
439.91	465.91
440.116	613.37
440.323	801.78
440.53	334.84
440.737	398.33
440.943	826.36
441.15	742.39
441.357	697.33
441.563	449.53
441.77	289.79
441.977	1182.7
442.183	719.86
442.39	533.5
442.597	1080.3
442.803	1174.51
443.01	1213.42
443.216	474.1
443.423	449.53
443.63	902.13
443.836	963.57
444.043	830.45
444.249	453.63
444.456	1084.4
444.662	1002.48
444.869	498.68
445.075	584.7
445.282	1078.26
445.488	865.27
445.695	1049.58
445.901	242.68
446.107	1000.43
446.314	820.21
446.52	1324.01
446.727	740.34
446.933	668.66
447.139	824.31
447.346	1055.73
447.552	500.73
447.759	789.49
447.965	723.96
448.171	908.27
448.378	824.31
448.584	1129.45
448.79	1061.87
448.996	844.79
449.203	1039.34
449.409	793.59
449.615	639.99
449.821	889.84
450.028	766.96
450.234	787.44
450.44	863.22
450.646	1141.74
450.852	1090.54
451.059	820.21
451.265	990.19
451.471	1147.89
451.677	1924.07
451.883	934.9
452.089	623.61
452.295	865.27
452.502	674.81
452.708	1328.11
452.914	754.68
453.12	1395.69
453.326	781.3
453.532	1401.83
453.738	601.08
453.944	556.02
454.15	443.39
454.356	1407.98
454.562	625.65
454.768	683
454.974	281.6
455.18	752.63
455.386	685.05
455.592	500.73
455.798	431.1
456.003	504.82
456.209	467.96
456.415	412.67
456.621	508.92
456.827	660.47
457.033	332.79
457.239	414.71
457.444	156.67
457.65	588.79
457.856	226.3
458.062	744.44
458.268	191.49
458.473	455.67
458.679	433.15
458.885	857.07
459.091	433.15
459.296	713.72
459.502	191.49
459.708	732.15
459.914	211.96
460.119	891.89
460.325	119.81
460.531	394.23
460.736	668.66
460.942	412.67
461.147	273.4
461.353	332.79
461.559	201.72
461.764	588.79
461.97	363.51
462.175	410.62
462.381	400.38
462.587	455.67
462.792	84.99
462.998	490.49
463.203	248.83
463.409	701.43
463.614	760.82
463.82	662.52
464.025	246.78
464.231	576.5
464.436	336.89
464.641	304.12
464.847	386.04
465.052	560.12
465.258	275.45
465.463	822.26
465.669	1141.74
465.874	842.74
466.079	386.04
466.285	480.25
466.49	371.71
466.695	746.48
466.901	316.41
467.106	519.16
467.311	179.2
467.516	568.31
467.722	723.96
467.927	1381.35
468.132	424.95
468.338	637.94
468.543	494.58
468.748	400.38
468.953	128
469.158	1207.28
469.364	648.18
469.569	994.29
469.774	449.53
469.979	1049.58
470.184	539.64
470.389	1020.91
470.594	656.37
470.8	1149.93
471.005	513.02
471.21	1342.44
471.415	406.52
471.62	814.07
471.825	644.09
472.03	1231.85
472.235	941.04
472.44	1283.05
472.645	867.31
472.85	1022.96
473.055	1123.31
473.26	1059.82
473.465	529.4
473.67	1104.88
473.875	1043.44
474.08	1059.82
474.285	523.26
474.49	969.71
474.695	734.2
474.899	1321.96
475.104	1235.95
475.309	1610.73
475.514	699.38
475.719	1778.66
475.924	1127.41
476.128	1002.48
476.333	1301.48
476.538	1514.47
476.743	572.41
476.948	1065.97
477.152	1264.62
477.357	1610.73
477.562	1051.63
477.767	1162.22
477.971	1092.59
478.176	1055.73
478.381	670.71
478.585	1364.97
478.79	680.95
478.995	1629.16
479.199	1309.68
479.404	1096.69
479.609	906.23
479.813	1762.28
480.018	1358.83
480.223	2063.33
480.427	2227.17
480.632	1483.75
480.836	644.09
481.041	1991.65
481.245	1661.93
481.45	1520.62
481.654	1276.91
481.859	1194.99
482.063	1078.26
482.268	1960.93
482.472	1717.22
482.677	1434.6
482.881	1371.12
483.086	1274.86
483.29	1180.65
483.495	1760.23
483.699	1895.4
483.903	3118.03
484.108	2497.5
484.312	2753.49
484.517	1883.11
484.721	1772.52
484.925	1395.69
485.13	1463.27
485.334	797.68
485.538	1655.78
485.743	1561.58
485.947	1743.85
486.151	1674.21
486.355	1373.16
486.56	1012.72
486.764	2022.37
486.968	1573.86
487.172	1174.51
487.377	1637.35
487.581	1463.27
487.785	969.71
487.989	2429.91
488.193	2460.63
488.397	2378.72
488.602	1745.89
488.806	1678.31
489.01	1131.5
489.214	1389.55
489.418	1266.67
489.622	1192.94
489.826	926.71
490.03	1807.33
490.234	1543.14
490.438	1483.75
490.642	1442.79
490.846	938.99
491.05	701.43
491.254	1414.12
491.458	1051.63
491.662	1946.59
491.866	1184.75
492.07	885.75
492.274	857.07
492.478	1586.15
492.682	1068.02
492.886	1473.51
493.09	1084.4
493.294	857.07
493.498	754.68
493.701	1524.71
493.905	963.57
494.109	1545.19
494.313	918.51
494.517	1221.61
494.721	1096.69
494.924	1383.4
495.128	906.23
495.332	1797.09
495.536	885.75
495.739	867.31
495.943	1027.06
496.147	1135.6
496.351	928.75
496.554	1932.26
496.758	820.21
496.962	486.39
497.165	564.22
497.369	1166.32
497.573	1215.47
497.776	2638.81
497.98	996.34
498.184	1086.45
498.387	1272.81
498.591	1207.28
498.794	998.38
498.998	1319.92
499.202	746.48
499.405	1010.67
499.609	738.29
499.812	916.47
500.016	1238
500.219	3128.27
500.423	1303.53
500.626	1125.36
500.83	979.95
501.033	1500.14
501.237	1078.26
501.44	2112.48
501.643	631.8
501.847	1151.98
502.05	652.28
502.254	924.66
502.457	1199.09
502.66	1700.84
502.864	637.94
503.067	852.98
503.271	760.82
503.474	558.07
503.677	1006.58
503.88	1094.64
504.084	529.4
504.287	846.84
504.49	861.17
504.694	1315.82
504.897	2403.29
505.1	2640.86
505.303	1283.05
505.507	1534.95
505.71	695.29
505.913	1278.96
506.116	646.13
506.319	1358.83
506.522	2397.15
506.726	2132.96
506.929	988.14
507.132	1440.75
507.335	285.69
507.538	349.18
507.741	1113.07
507.944	588.79
508.147	599.03
508.35	1242.09
508.553	457.72
508.756	746.48
508.959	527.35
509.163	857.07
509.366	627.7
509.569	1627.11
509.771	492.54
509.974	1008.62
510.177	652.28
510.38	1010.67
510.583	998.38
510.786	943.09
510.989	713.72
511.192	1272.81
511.395	353.27
511.598	582.65
511.801	418.81
512.004	1135.6
512.206	883.7
512.409	1551.34
512.612	461.82
512.815	1170.41
513.018	840.69
513.22	871.41
513.423	711.67
513.626	906.23
513.829	494.58
514.032	1584.1
514.234	750.58
514.437	957.43
514.64	1219.57
514.842	947.19
515.045	957.43
515.248	1293.29
515.45	783.35
515.653	1084.4
515.856	695.29
516.058	654.33
516.261	1479.66
516.464	551.93
516.666	644.09
516.869	1752.04
517.071	902.13
517.274	1383.4
517.477	480.25
517.679	1117.17
517.882	1299.44
518.084	1496.04
518.287	1082.35
518.489	1858.53
518.692	1405.93
518.894	1360.88
519.097	1123.31
519.299	1010.67
519.501	1610.73
519.704	1663.97
519.906	1373.16
520.109	2442.2
520.311	529.4
520.514	1346.54
520.716	1022.96
520.918	803.83
521.121	1385.45
521.323	1672.17
521.525	914.42
521.728	2231.26
521.93	1182.7
522.132	1541.1
522.335	1387.5
522.537	1463.27
522.739	996.34
522.941	1690.6
523.144	803.83
523.346	1385.45
523.548	904.18
523.75	1192.94
523.952	1168.37
524.155	936.95
524.357	912.37
524.559	1553.38
524.761	867.31
524.963	1711.08
525.165	865.27
525.368	1444.84
525.57	1313.77
525.772	1307.63
525.974	1227.76
526.176	1387.5
526.378	701.43
526.58	1539.05
526.782	773.11
526.984	1387.5
527.186	1102.83
527.388	781.3
527.59	902.13
527.792	1530.86
527.994	666.61
528.196	1780.71
528.398	672.76
528.6	1434.6
528.802	416.76
529.004	723.96
529.206	871.41
529.408	1608.68
529.609	766.96
529.811	1745.89
530.013	764.92
530.215	1303.53
530.417	771.06
530.619	934.9
530.821	1190.89
531.022	1043.44
531.224	771.06
531.426	2198.49
531.628	805.88
531.829	1508.33
532.031	1053.68
532.233	713.72
532.435	1082.35
532.636	633.85
532.838	1117.17
533.04	1156.08
533.241	803.83
533.443	1952.74
533.645	1108.98
533.846	1184.75
534.048	1070.06
534.25	1078.26
534.451	1053.68
534.653	906.23
534.855	713.72
535.056	1694.69
535.258	607.22
535.459	1627.11
535.661	572.41
535.862	1147.89
536.064	607.22
536.265	871.41
536.467	562.17
536.668	830.45
536.87	769.01
537.071	1682.41
537.273	1053.68
537.474	1348.59
537.676	1219.57
537.877	834.55
538.078	728.05
538.28	773.11
538.481	746.48
538.683	1328.11
538.884	312.32
539.085	1633.26
539.287	947.19
539.488	1252.33
539.689	619.51
539.891	1305.58
540.092	777.2
540.293	936.95
540.495	877.55
540.696	941.04
540.897	590.84
541.098	1104.88
541.3	986.1
541.501	1209.33
541.702	1190.89
541.903	1098.74
542.104	1184.75
542.306	959.47
542.507	613.37
542.708	1823.72
542.909	556.02
543.11	1676.26
543.311	312.32
543.512	910.32
543.713	1346.54
543.915	967.67
544.116	1025.01
544.317	1764.33
544.518	959.47
544.719	1147.89
544.92	588.79
545.121	912.37
545.322	764.92
545.523	1450.99
545.724	1123.31
545.925	783.35
546.126	973.81
546.327	1950.69
546.528	1229.81
546.729	1303.53
546.929	957.43
547.13	1631.21
547.331	744.44
547.532	1276.91
547.733	1104.88
547.934	953.33
548.135	973.81
548.336	1577.96
548.536	949.23
548.737	2200.54
548.938	1158.13
549.139	1817.57
549.34	1018.86
549.54	1698.79
549.741	1135.6
549.942	1086.45
550.143	236.54
550.343	1270.76
550.544	1156.08
550.745	2284.51
550.945	957.43
551.146	1373.16
551.347	846.84
551.547	1133.55
551.748	1125.36
551.949	1569.77
552.149	1326.06
552.35	1088.5
552.551	1491.95
552.751	992.24
552.952	615.41
553.152	1192.94
553.353	812.02
553.553	1692.65
553.754	1260.52
553.954	1092.59
554.155	1121.26
554.356	1434.6
554.556	1188.85
554.756	1289.2
554.957	1555.43
555.157	1215.47
555.358	1448.94
555.558	1819.62
555.759	801.78
555.959	1061.87
556.159	1008.62
556.36	1338.35
556.56	1031.15
556.761	1326.06
556.961	1580.01
557.161	1405.93
557.362	1764.33
557.562	1694.69
557.762	1164.27
557.963	2370.52
558.163	906.23
558.363	1518.57
558.563	1242.09
558.764	1268.72
558.964	1231.85
559.164	1192.94
559.364	1221.61
559.565	1117.17
559.765	1618.92
559.965	930.8
560.165	1432.55
560.365	1782.76
560.565	1041.39
560.766	2335.71
560.966	986.1
561.166	697.33
561.366	1588.2
561.566	1172.46
561.766	1059.82
561.966	1362.92
562.166	1209.33
562.366	1453.03
562.566	1166.32
562.766	1008.62
562.966	830.45
563.166	1590.25
563.366	590.84
563.566	1508.33
563.766	971.76
563.966	1733.61
564.166	1172.46
564.366	1223.66
564.566	869.36
564.766	1551.34
564.966	740.34
565.166	1842.15
565.366	857.07
565.565	1121.26
565.765	472.06
565.965	1076.21
566.165	455.67
566.365	1864.68
566.565	709.62
566.764	920.56
566.964	832.5
567.164	756.72
567.364	676.85
567.564	1115.12
567.763	621.56
567.963	357.37
568.163	904.18
568.362	1211.37
568.562	539.64
568.762	1227.76
568.961	336.89
569.161	1123.31
569.361	179.2
569.56	1461.23
569.76	416.76
569.96	738.29
570.159	560.12
570.359	785.4
570.558	560.12
570.758	889.84
570.958	404.47
571.157	752.63
571.357	693.24
571.556	453.63
571.756	500.73
571.955	920.56
572.155	154.62
572.354	1506.28
572.554	257.02
572.753	652.28
572.953	752.63
573.152	373.75
573.351	508.92
573.551	742.39
573.75	293.88
573.95	398.33
574.149	195.58
574.348	672.76
574.548	521.21
574.747	361.47
574.946	363.51
575.146	797.68
575.345	181.25
575.544	762.87
575.744	277.5
575.943	394.23
576.142	494.58
576.342	476.15
576.541	723.96
576.74	355.32
576.939	523.26
577.138	328.7
577.338	447.48
577.537	357.37
577.736	357.37
577.935	412.67
578.134	295.93
578.333	646.13
578.533	410.62
578.732	340.99
578.931	148.48
579.13	1094.64
579.329	185.34
579.528	938.99
579.727	367.61
579.926	201.72
580.125	510.97
580.324	222.2
580.523	435.19
580.722	207.87
580.921	295.93
581.12	459.77
581.319	205.82
581.518	410.62
581.717	187.39
581.916	252.92
582.115	316.41
582.314	498.68
582.513	138.24
582.712	406.52
582.911	87.04
583.109	396.28
583.308	99.33
583.507	429.05
583.706	355.32
583.905	209.92
584.104	594.93
584.302	177.15
584.501	142.33
584.7	144.38
584.899	99.33
585.098	295.93
585.296	228.35
585.495	377.85
585.694	254.97
585.892	383.99
586.091	177.15
586.29	338.94
586.488	142.33
586.687	504.82
586.886	93.18
587.084	506.87
587.283	17.41
587.482	386.04
587.68	232.44
587.879	742.39
588.077	316.41
588.276	220.16
588.475	343.03
588.673	320.51
588.872	562.17
589.07	330.75
589.269	402.43
589.467	486.39
589.666	158.72
589.864	437.24
590.063	152.57
590.261	414.71
590.46	476.15
590.658	414.71
590.857	306.17
591.055	613.37
591.253	191.49
591.452	674.81
591.65	158.72
591.848	441.34
592.047	177.15
592.245	386.04
592.444	271.36
592.642	177.15
592.84	302.08
593.038	252.92
593.237	402.43
593.435	310.27
593.633	537.59
593.832	211.96
594.03	697.33
594.228	375.8
594.426	279.55
594.624	308.22
594.823	70.65
595.021	474.1
595.219	224.25
595.417	300.03
595.615	236.54
595.813	281.6
596.012	211.96
596.21	496.63
596.408	216.06
596.606	355.32
596.804	224.25
597.002	216.06
597.2	195.58
597.398	443.39
597.596	130.05
597.794	433.15
597.992	179.2
598.19	482.3
598.388	236.54
598.586	431.1
598.784	230.4
598.982	398.33
599.18	379.9
599.378	295.93
599.576	234.49
599.774	244.73
599.972	295.93
600.17	369.66
600.368	314.36
600.565	484.34
600.763	207.87
600.961	242.68
601.159	500.73
601.357	209.92
601.555	531.45
601.752	670.71
601.95	660.47
602.148	267.26
602.346	936.95
602.544	871.41
602.741	625.65
602.939	1010.67
603.137	388.09
603.334	789.49
603.532	322.56
603.73	1258.48
603.927	744.44
604.125	875.51
604.323	271.36
604.52	1418.22
604.718	455.67
604.916	1057.78
605.113	318.46
605.311	998.38
605.508	418.81
605.706	746.48
605.904	533.5
606.101	521.21
606.299	437.24
606.496	478.2
606.694	365.56
606.891	707.57
607.089	306.17
607.286	451.58
607.484	392.19
607.681	269.31
607.879	578.55
608.076	340.99
608.273	252.92
608.471	486.39
608.668	297.98
608.866	248.83
609.063	345.08
609.26	459.77
609.458	367.61
609.655	519.16
609.852	279.55
610.05	574.46
610.247	373.75
610.444	402.43
610.642	367.61
610.839	228.35
611.036	402.43
611.233	265.21
611.431	420.86
611.628	234.49
611.825	355.32
612.022	134.14
612.22	297.98
612.417	146.43
612.614	168.96
612.811	281.6
613.008	300.03
613.205	142.33
613.402	277.5
613.6	478.2
613.797	187.39
613.994	330.75
614.191	357.37
614.388	355.32
614.585	39.94
614.782	422.91
614.979	185.34
615.176	195.58
615.373	-9.22
615.57	291.84
615.767	87.04
615.964	300.03
616.161	13.31
616.358	461.82
616.555	115.71
616.752	220.16
616.949	134.14
617.146	240.64
617.343	105.47
617.539	269.31
617.736	101.37
617.933	148.48
618.13	144.38
618.327	377.85
618.524	17.41
618.721	175.1
618.917	54.27
619.114	312.32
619.311	179.2
619.508	117.76
619.704	134.14
619.901	185.34
620.098	111.61
620.295	166.91
620.491	-29.7
620.688	275.45
620.885	160.77
621.081	226.3
621.278	58.37
621.475	357.37
621.671	76.8
621.868	121.85
622.065	82.94
622.261	211.96
622.458	52.22
622.655	279.55
622.851	101.37
623.048	101.37
623.244	93.18
623.441	185.34
623.637	236.54
623.834	74.75
624.03	115.71
624.227	125.95
624.423	101.37
624.62	173.05
624.816	130.05
625.013	265.21
625.209	46.08
625.406	91.13
625.602	-52.22
625.798	171.01
625.995	1.02
626.191	80.89
626.388	115.71
626.584	211.96
626.78	48.13
626.977	93.18
627.173	-3.07
627.369	168.96
627.566	128
627.762	107.52
627.958	123.9
628.154	195.58
628.351	46.08
628.547	95.23
628.743	132.09
628.939	130.05
629.136	54.27
629.332	181.25
629.528	84.99
629.724	121.85
629.92	50.18
630.116	156.67
630.313	70.65
630.509	-29.7
630.705	144.38
630.901	138.24
631.097	44.03
631.293	9.22
631.489	-15.36
631.685	-9.22
631.881	136.19
632.077	99.33
632.273	52.22
632.469	80.89
632.665	119.81
632.861	117.76
633.057	193.53
633.253	93.18
633.449	-1.02
633.645	-17.41
633.841	105.47
634.037	52.22
634.233	62.46
634.429	205.82
634.625	-35.84
634.821	168.96
635.017	136.19
635.212	-3.07
635.408	50.18
635.604	68.61
635.8	76.8
635.996	103.42
636.191	171.01
636.387	138.24
636.583	56.32
636.779	-58.37
636.975	119.81
637.17	62.46
637.366	68.61
637.562	41.98
637.757	-15.36
637.953	119.81
638.149	39.94
638.345	31.74
638.54	-11.26
638.736	117.76
638.931	52.22
639.127	154.62
639.323	152.57
639.518	134.14
639.714	5.12
639.909	68.61
640.105	97.28
640.301	19.46
640.496	125.95
640.692	195.58
640.887	29.7
641.083	105.47
641.278	179.2
641.474	168.96
641.669	29.7
641.865	80.89
642.06	150.53
642.256	3.07
642.451	134.14
642.646	58.37
642.842	144.38
643.037	199.68
643.233	177.15
643.428	156.67
643.623	52.22
643.819	-78.85
644.014	23.55
644.209	-11.26
644.405	3.07
644.6	113.66
644.795	101.37
644.99	-15.36
645.186	142.33
645.381	74.75
645.576	19.46
645.771	-15.36
645.967	21.5
646.162	-5.12
646.357	91.13
646.552	97.28
646.747	52.22
646.943	1.02
647.138	64.51
647.333	125.95
647.528	-246.78
647.723	197.63
647.918	15.36
648.113	109.57
648.308	175.1
648.504	25.6
648.699	-35.84
648.894	80.89
649.089	27.65
649.284	-39.94
649.479	46.08
649.674	62.46
649.869	95.23
650.064	-46.08
650.259	58.37
650.454	19.46
650.649	17.41
650.844	-41.98
651.038	33.79
651.233	-11.26
651.428	29.7
651.623	80.89
651.818	-7.17
652.013	97.28
652.208	56.32
652.403	64.51
652.597	27.65
652.792	-76.8
652.987	205.82
653.182	48.13
653.377	3.07
653.571	103.42
653.766	-25.6
653.961	48.13
654.156	33.79
654.35	9.22
654.545	27.65
654.74	107.52
654.935	60.42
655.129	97.28
655.324	87.04
655.519	-3.07
655.713	87.04
655.908	66.56
656.102	138.24
656.297	148.48
656.492	78.85
656.686	123.9
656.881	13.31
657.075	-46.08
657.27	9.22
657.464	-29.7
657.659	142.33
657.854	-27.65
658.048	76.8
658.243	50.18
658.437	78.85
658.631	-78.85
658.826	191.49
659.02	44.03
659.215	7.17
659.409	-5.12
659.604	-62.46
659.798	66.56
659.992	-13.31
660.187	13.31
660.381	17.41
660.576	1.02
660.77	99.33
660.964	13.31
661.159	48.13
661.353	179.2
661.547	46.08
661.742	142.33
661.936	37.89
662.13	23.55
662.324	35.84
662.519	-3.07
662.713	29.7
662.907	-13.31
663.101	205.82
663.295	99.33
663.49	-19.46
663.684	97.28
663.878	58.37
664.072	64.51
664.266	93.18
664.46	72.7
664.654	35.84
664.849	105.47
665.043	39.94
665.237	-44.03
665.431	-33.79
665.625	70.65
665.819	33.79
666.013	58.37
666.207	54.27
666.401	64.51
666.595	46.08
666.789	-13.31
666.983	89.09
667.177	74.75
667.371	74.75
667.565	115.71
667.759	-1.02
667.953	64.51
668.147	48.13
668.34	74.75
668.534	-21.5
668.728	15.36
668.922	-29.7
669.116	117.76
669.31	97.28
669.504	-44.03
669.697	13.31
669.891	64.51
670.085	134.14
670.279	84.99
670.473	84.99
670.666	58.37
670.86	115.71
671.054	105.47
671.248	138.24
671.441	-13.31
671.635	197.63
671.829	9.22
672.022	17.41
672.216	-31.74
672.41	93.18
672.603	1.02
672.797	54.27
672.99	84.99
673.184	89.09
673.378	11.26
673.571	146.43
673.765	33.79
673.958	138.24
674.152	128
674.345	175.1
674.539	-17.41
674.733	78.85
674.926	111.61
675.12	29.7
675.313	21.5
675.506	78.85
675.7	54.27
675.893	132.09
676.087	152.57
676.28	56.32
676.474	164.86
676.667	72.7
676.86	-23.55
677.054	70.65
677.247	13.31
677.441	60.42
677.634	33.79
677.827	74.75
678.02	29.7
678.214	93.18
678.407	-27.65
678.6	76.8
678.794	91.13
678.987	68.61
679.18	50.18
679.373	-19.46
679.567	109.57
679.76	66.56
679.953	-17.41
680.146	80.89
680.339	119.81
680.533	91.13
680.726	111.61
680.919	31.74
681.112	23.55
681.305	-13.31
681.498	-9.22
681.691	27.65
681.884	152.57
682.077	7.17
682.271	-109.57
682.464	97.28
682.657	39.94
682.85	41.98
683.043	187.39
683.236	33.79
683.429	-21.5
683.622	-35.84
683.815	72.7
684.008	68.61
684.201	37.89
684.393	25.6
684.586	80.89
684.779	113.66
684.972	60.42
685.165	-23.55
685.358	-93.18
685.551	105.47
685.744	70.65
685.937	-25.6
686.129	105.47
686.322	130.05
686.515	64.51
686.708	-35.84
686.901	-37.89
687.093	72.7
687.286	80.89
687.479	103.42
687.672	27.65
687.864	44.03
688.057	64.51
688.25	-29.7
688.442	134.14
688.635	13.31
688.828	-1.02
689.02	97.28
689.213	119.81
689.406	-17.41
689.598	3.07
689.791	21.5
689.984	95.23
690.176	-15.36
690.369	-41.98
690.561	-54.27
690.754	33.79
690.946	136.19
691.139	37.89
691.331	138.24
691.524	56.32
691.716	99.33
691.909	-93.18
692.101	-60.42
692.294	52.22
692.486	41.98
692.679	99.33
692.871	-60.42
693.063	9.22
693.256	95.23
693.448	70.65
693.641	-19.46
693.833	121.85
694.025	91.13
694.218	181.25
694.41	201.72
694.602	2212.83
694.795	11625.29
694.987	22047.41
695.179	35142.12
695.372	27888.21
695.564	19161.82
695.756	15395.61
695.948	8989.56
696.14	5630.89
696.333	1915.87
696.525	889.84
696.717	199.68
696.909	39.94
697.101	173.05
697.294	62.46
697.486	72.7
697.678	17.41
697.87	58.37
698.062	-5.12
698.254	31.74
698.446	-11.26
698.638	72.7
698.83	50.18
699.022	82.94
699.215	-46.08
699.407	158.72
699.599	7.17
699.791	70.65
699.983	89.09
700.175	58.37
700.367	160.77
700.558	-5.12
700.75	41.98
700.942	154.62
701.134	58.37
701.326	97.28
701.518	-15.36
701.71	68.61
701.902	48.13
702.094	68.61
702.286	-54.27
702.477	117.76
702.669	37.89
702.861	-68.61
703.053	107.52
703.245	80.89
703.436	89.09
703.628	115.71
703.82	91.13
704.012	121.85
704.203	-9.22
704.395	136.19
704.587	463.86
704.779	1614.82
704.97	10146.66
705.162	22715.05
705.354	25954.93
705.545	23446.17
705.737	18627.3
705.929	11531.09
706.12	9089.91
706.312	4152.26
706.503	2259.93
706.695	523.26
706.887	306.17
707.078	62.46
707.27	19.46
707.461	39.94
707.653	105.47
707.844	66.56
708.036	62.46
708.227	80.89
708.419	-54.27
708.61	48.13
708.802	62.46
708.993	-3.07
709.185	19.46
709.376	27.65
709.567	-1.02
709.759	119.81
709.95	76.8
710.141	62.46
710.333	58.37
710.524	5.12
710.716	-39.94
710.907	60.42
711.098	-62.46
711.289	54.27
711.481	78.85
711.672	37.89
711.863	39.94
712.055	130.05
712.246	60.42
712.437	70.65
712.628	52.22
712.82	-64.51
713.011	87.04
713.202	136.19
713.393	232.44
713.584	95.23
713.775	70.65
713.967	25.6
714.158	91.13
714.349	76.8
714.54	-39.94
714.731	103.42
714.922	105.47
715.113	99.33
715.304	70.65
715.495	121.85
715.686	25.6
715.877	78.85
716.068	82.94
716.259	-19.46
716.45	-33.79
716.641	62.46
716.832	-23.55
717.023	142.33
717.214	19.46
717.405	25.6
717.596	105.47
717.787	35.84
717.978	31.74
718.169	3.07
718.36	-27.65
718.55	101.37
718.741	-76.8
718.932	78.85
719.123	60.42
719.314	9.22
719.505	-31.74
719.695	37.89
719.886	70.65
720.077	-15.36
720.268	11.26
720.458	95.23
720.649	60.42
720.84	54.27
721.031	23.55
721.221	64.51
721.412	60.42
721.603	37.89
721.793	78.85
721.984	11.26
722.175	60.42
722.365	80.89
722.556	119.81
722.746	70.65
722.937	3.07
723.128	-44.03
723.318	48.13
723.509	107.52
723.699	1.02
723.89	66.56
724.08	27.65
724.271	115.71
724.461	-3.07
724.652	35.84
724.842	-9.22
725.033	48.13
725.223	109.57
725.414	-5.12
725.604	156.67
725.794	891.89
725.985	2612.18
726.175	1573.86
726.366	1135.6
726.556	199.68
726.746	125.95
726.937	27.65
727.127	-23.55
727.317	-15.36
727.508	52.22
727.698	25.6
727.888	-19.46
728.079	105.47
728.269	-21.5
728.459	-62.46
728.649	84.99
728.84	-48.13
729.03	68.61
729.22	-46.08
729.41	136.19
729.6	234.49
729.791	23.55
729.981	-89.09
730.171	-17.41
730.361	97.28
730.551	41.98
730.741	33.79
730.931	111.61
731.121	82.94
731.311	117.76
731.502	121.85
731.692	9.22
731.882	19.46
732.072	3.07
732.262	-1.02
732.452	-78.85
732.642	89.09
732.832	72.7
733.022	-17.41
733.212	125.95
733.402	35.84
733.591	29.7
733.781	-87.04
733.971	48.13
734.161	5.12
734.351	15.36
734.541	95.23
734.731	105.47
734.921	1.02
735.111	-31.74
735.3	66.56
735.49	76.8
735.68	80.89
735.87	74.75
736.06	214.01
736.249	1801.19
736.439	3845.06
736.629	14916.38
736.819	27447.9
737.008	41501.06
737.198	44200.29
737.388	30401.07
737.577	24822.41
737.767	18889.44
737.957	11866.95
738.146	8856.44
738.336	3695.56
738.526	2038.75
738.715	756.72
738.905	134.14
739.094	134.14
739.284	82.94
739.474	54.27
739.663	58.37
739.853	175.1
740.042	-31.74
740.232	123.9
740.421	60.42
740.611	93.18
740.8	76.8
740.99	119.81
741.179	-29.7
741.369	21.5
741.558	89.09
741.748	5.12
741.937	-39.94
742.126	13.31
742.316	-1.02
742.505	-31.74
742.695	97.28
742.884	80.89
743.073	134.14
743.263	-11.26
743.452	37.89
743.641	136.19
743.831	-62.46
744.02	130.05
744.209	99.33
744.398	41.98
744.588	7.17
744.777	-1.02
744.966	11.26
745.155	148.48
745.345	50.18
745.534	148.48
745.723	185.34
745.912	84.99
746.101	97.28
746.29	-56.32
746.48	101.37
746.669	138.24
746.858	31.74
747.047	-33.79
747.236	-101.37
747.425	-27.65
747.614	99.33
747.803	158.72
747.992	50.18
748.181	232.44
748.37	619.51
748.559	2024.42
748.748	10144.61
748.937	19880.66
749.126	26989.16
749.315	29895.22
749.504	29434.43
749.693	26212.98
749.882	34155
750.071	41114
750.26	41847.17
750.449	37945.79
750.638	31386.15
750.826	21660.34
751.015	17765.1
751.204	11696.97
751.393	7748.49
751.582	3992.52
751.771	2270.17
751.959	330.75
752.148	486.39
752.337	236.54
752.526	140.29
752.714	37.89
752.903	17.41
753.092	54.27
753.281	93.18
753.469	23.55
753.658	52.22
753.847	-5.12
754.035	-25.6
754.224	-23.55
754.413	66.56
754.601	-48.13
754.79	109.57
754.979	-9.22
755.167	-19.46
755.356	-3.07
755.544	17.41
755.733	144.38
755.921	101.37
756.11	31.74
756.298	-39.94
756.487	95.23
756.675	119.81
756.864	44.03
757.052	-31.74
757.241	33.79
757.429	95.23
757.618	-29.7
757.806	80.89
757.995	58.37
758.183	48.13
758.371	-62.46
758.56	-19.46
758.748	-1.02
758.937	-23.55
759.125	78.85
759.313	-58.37
759.502	89.09
759.69	9.22
759.878	-9.22
760.066	60.42
760.255	48.13
760.443	117.76
760.631	117.76
760.819	93.18
761.008	257.02
761.196	723.96
761.384	2470.87
761.572	8379.26
761.761	15870.73
761.949	35189.22
762.137	61403.22
762.325	64200.75
762.513	64313.39
762.701	64305.19
762.889	46602.55
763.077	36295.13
763.266	28234.32
763.454	19729.11
763.642	12524.35
763.83	9196.4
764.018	4723.64
764.206	2696.15
764.394	1188.85
764.582	713.72
764.77	287.74
764.958	629.75
765.146	297.98
765.334	103.42
765.522	97.28
765.71	105.47
765.898	5.12
766.085	146.43
766.273	29.7
766.461	132.09
766.649	103.42
766.837	117.76
767.025	21.5
767.213	15.36
767.401	23.55
767.588	-11.26
767.776	66.56
767.964	44.03
768.152	9.22
768.339	66.56
768.527	-27.65
768.715	-58.37
768.903	-9.22
769.09	11.26
769.278	146.43
769.466	66.56
769.654	13.31
769.841	115.71
770.029	62.46
770.217	183.29
770.404	21.5
770.592	1057.78
770.779	6097.83
770.967	17570.55
771.155	30833.19
771.342	37229
771.53	26241.65
771.717	21308.09
771.905	16132.87
772.092	10099.56
772.28	6282.14
772.467	4514.75
772.655	771.06
772.842	214.01
773.03	203.77
773.217	99.33
773.405	84.99
773.592	84.99
773.78	66.56
773.967	-7.17
774.154	-52.22
774.342	68.61
774.529	125.95
774.717	78.85
774.904	-44.03
775.091	46.08
775.279	105.47
775.466	95.23
775.653	58.37
775.841	68.61
776.028	171.01
776.215	27.65
776.402	62.46
776.59	48.13
776.777	82.94
776.964	48.13
777.151	-62.46
777.338	128
777.526	95.23
777.713	-66.56
777.9	23.55
778.087	25.6
778.274	134.14
778.461	113.66
778.649	52.22
778.836	41.98
779.023	125.95
779.21	82.94
779.397	144.38
779.584	148.48
779.771	78.85
779.958	-15.36
780.145	54.27
780.332	109.57
780.519	-25.6
780.706	-11.26
780.893	140.29
781.08	-70.65
781.267	-19.46
781.454	-1.02
781.641	82.94
781.828	93.18
782.015	99.33
782.202	84.99
782.388	56.32
782.575	-15.36
782.762	-27.65
782.949	35.84
783.136	-7.17
783.323	-11.26
783.509	76.8
783.696	93.18
783.883	-21.5
784.07	-84.99
784.257	41.98
784.443	46.08
784.63	105.47
784.817	5.12
785.004	7.17
785.19	44.03
785.377	-5.12
785.564	72.7
785.75	119.81
785.937	64.51
786.124	107.52
786.31	21.5
786.497	52.22
786.683	39.94
786.87	46.08
787.057	97.28
787.243	84.99
787.43	93.18
787.616	113.66
787.803	21.5
787.989	-1.02
788.176	-48.13
788.362	44.03
788.549	54.27
788.735	134.14
788.922	97.28
789.108	13.31
789.295	23.55
789.481	132.09
789.668	50.18
789.854	52.22
790.04	89.09
790.227	33.79
790.413	82.94
790.599	74.75
790.786	-11.26
790.972	39.94
791.158	25.6
791.345	-31.74
791.531	154.62
791.717	84.99
791.904	74.75
792.09	177.15
792.276	115.71
792.462	37.89
792.649	5.12
792.835	117.76
793.021	74.75
793.207	60.42
793.393	4465.6
793.58	14480.16
793.766	23644.82
793.952	20802.24
794.138	19159.77
794.324	14050.09
794.51	8602.49
794.696	4854.71
794.882	3355.6
795.069	623.61
795.255	379.9
795.441	39.94
795.627	-13.31
795.813	48.13
795.999	138.24
796.185	35.84
796.371	-23.55
796.557	203.77
796.743	103.42
796.929	56.32
797.115	74.75
797.3	56.32
797.486	175.1
797.672	179.2
797.858	27.65
798.044	-25.6
798.23	-56.32
798.416	146.43
798.602	68.61
798.788	-87.04
798.973	-87.04
799.159	207.87
799.345	3331.02
799.531	6742.94
799.717	9089.91
799.902	12022.6
800.088	15684.37
800.274	20546.25
800.46	30345.78
800.645	31388.19
800.831	21779.12
801.017	13792.05
801.202	12004.17
801.388	6953.88
801.574	3777.48
801.759	1098.74
801.945	590.84
802.131	261.12
802.316	144.38
802.502	89.09
802.687	58.37
802.873	21.5
803.058	39.94
803.244	-72.7
803.43	62.46
803.615	41.98
803.801	21.5
803.986	64.51
804.172	58.37
804.357	66.56
804.543	-76.8
804.728	80.89
804.913	103.42
805.099	70.65
805.284	-89.09
805.47	31.74
805.655	117.76
805.84	82.94
806.026	160.77
806.211	105.47
806.397	105.47
806.582	-1.02
806.767	70.65
806.953	84.99
807.138	164.86
807.323	76.8
807.508	70.65
807.694	41.98
807.879	82.94
808.064	-23.55
808.249	152.57
808.435	306.17
808.62	863.22
808.805	2188.25
808.99	9290.61
809.175	18531.05
809.361	27073.12
809.546	32064.02
809.731	37736.9
809.916	33843.71
810.101	33036.81
810.286	43110.77
810.471	59433.08
810.656	60158.06
810.841	54919.35
811.026	55998.63
811.211	48357.66
811.396	34886.12
811.581	28432.97
811.766	23087.78
811.951	17330.94
812.136	10931.03
812.321	8596.35
812.506	6024.1
812.691	3202
812.876	990.19
813.061	1014.77
813.246	375.8
813.431	121.85
813.616	11.26
813.801	158.72
813.986	128
814.17	33.79
814.355	-17.41
814.54	101.37
814.725	130.05
814.91	1.02
815.094	-5.12
815.279	60.42
815.464	162.81
815.649	82.94
815.833	82.94
816.018	144.38
816.203	60.42
816.388	84.99
816.572	15.36
816.757	52.22
816.942	21.5
817.126	62.46
817.311	62.46
817.496	87.04
817.68	117.76
817.865	95.23
818.049	95.23
818.234	-5.12
818.419	21.5
818.603	89.09
818.788	35.84
818.972	152.57
819.157	136.19
819.341	-11.26
819.526	23.55
819.71	62.46
819.895	44.03
820.079	80.89
820.264	80.89
820.448	-3.07
820.633	19.46
820.817	93.18
821.001	-21.5
821.186	80.89
821.37	41.98
821.554	-5.12
821.739	31.74
821.923	46.08
822.108	-62.46
822.292	35.84
822.476	107.52
822.66	62.46
822.845	132.09
823.029	123.9
823.213	29.7
823.398	15.36
823.582	37.89
823.766	60.42
823.95	-44.03
824.134	7.17
824.319	44.03
824.503	-144.38
824.687	74.75
824.871	11.26
825.055	29.7
825.239	74.75
825.423	1371.12
825.608	7617.42
825.792	8641.4
825.976	8436.61
826.16	7254.93
826.344	5286.83
826.528	1194.99
826.712	617.46
826.896	27.65
827.08	154.62
827.264	97.28
827.448	37.89
827.632	-21.5
827.816	44.03
828	44.03
828.184	-9.22
828.368	168.96
828.552	209.92
828.736	87.04
828.919	-52.22
829.103	31.74
829.287	78.85
829.471	58.37
829.655	-15.36
829.839	119.81
830.023	97.28
830.206	78.85
830.39	-44.03
830.574	33.79
830.758	37.89
830.941	103.42
831.125	-31.74
831.309	-37.89
831.493	-13.31
831.676	-3.07
831.86	-25.6
832.044	101.37
832.227	97.28
832.411	-5.12
832.595	5.12
832.778	-80.89
832.962	84.99
833.146	46.08
833.329	17.41
833.513	46.08
833.696	76.8
833.88	7.17
834.064	117.76
834.247	105.47
834.431	76.8
834.614	64.51
834.798	-3.07
834.981	-23.55
835.165	-103.42
835.348	35.84
835.532	87.04
835.715	35.84
835.898	11.26
836.082	78.85
836.265	-89.09
836.449	48.13
836.632	52.22
836.815	48.13
836.999	60.42
837.182	-31.74
837.365	99.33
837.549	1.02
837.732	35.84
837.915	93.18
838.099	54.27
838.282	7.17
838.465	64.51
838.648	-37.89
838.832	-27.65
839.015	74.75
839.198	23.55
839.381	25.6
839.565	52.22
839.748	611.32
839.931	6243.23
840.114	14760.73
840.297	19286.75
840.48	15651.6
840.663	14983.96
840.847	12813.12
841.03	9628.53
841.213	5694.38
841.396	7885.7
841.579	11303.76
841.762	17619.7
841.945	19933.9
842.128	19292.89
842.311	17369.85
842.494	12403.52
842.677	6224.8
842.86	3695.56
843.043	2292.7
843.226	1020.91
843.409	-33.79
843.592	31.74
843.775	68.61
843.958	50.18
844.141	78.85
844.323	82.94
844.506	46.08
844.689	54.27
844.872	-27.65
845.055	-89.09
845.238	173.05
845.42	25.6
845.603	111.61
845.786	125.95
845.969	9.22
846.152	72.7
846.334	95.23
846.517	91.13
846.7	31.74
846.883	19.46
847.065	-1.02
847.248	50.18
847.431	52.22
847.613	146.43
847.796	27.65
847.979	74.75
848.161	39.94
848.344	58.37
848.526	37.89
848.709	31.74
848.892	-31.74
849.074	52.22
849.257	33.79
849.439	105.47
849.622	-5.12
849.804	72.7
849.987	48.13
850.169	70.65
850.352	64.51
850.534	-1.02
850.717	11.26
850.899	87.04
851.082	99.33
851.264	11.26
851.446	111.61
851.629	1563.62
851.811	3142.61
851.994	1682.41
852.176	613.37
852.358	349.18
852.541	119.81
852.723	44.03
852.905	56.32
853.088	-7.17
853.27	89.09
853.452	-37.89
853.635	84.99
853.817	93.18
853.999	103.42
854.181	19.46
854.363	107.52
854.546	140.29
854.728	105.47
854.91	46.08
855.092	-27.65
855.274	82.94
855.457	62.46
855.639	119.81
855.821	23.55
856.003	37.89
856.185	52.22
856.367	52.22
856.549	15.36
856.731	15.36
856.913	119.81
857.095	128
857.277	80.89
857.459	15.36
857.641	5.12
857.823	60.42
858.005	-39.94
858.187	56.32
858.369	25.6
858.551	-39.94
858.733	62.46
858.915	144.38
859.097	-37.89
859.279	7.17
859.461	48.13
859.643	33.79
859.824	-37.89
860.006	29.7
860.188	193.53
860.37	82.94
860.552	-56.32
860.734	11.26
860.915	-27.65
861.097	15.36
861.279	66.56
861.461	76.8
861.642	68.61
861.824	25.6
862.006	119.81
862.188	56.32
862.369	95.23
862.551	35.84
862.733	-41.98
862.914	23.55
863.096	41.98
863.278	70.65
863.459	138.24
863.641	-17.41
863.822	-9.22
864.004	1.02
864.185	117.76
864.367	-29.7
864.549	39.94
864.73	80.89
864.912	80.89
865.093	9.22
865.275	68.61
865.456	23.55
865.638	101.37
865.819	87.04
866.001	64.51
866.182	91.13
866.363	5.12
866.545	60.42
866.726	39.94
866.908	27.65
867.089	56.32
867.27	72.7
867.452	109.57
867.633	64.51
867.814	41.98
867.996	35.84
868.177	-35.84
868.358	21.5
868.54	-48.13
868.721	-46.08
868.902	152.57
869.083	33.79
869.265	111.61
869.446	41.98
869.627	15.36
869.808	58.37
869.989	156.67
870.171	25.6
870.352	1.02
870.533	13.31
870.714	-13.31
870.895	87.04
871.076	171.01
871.257	31.74
871.438	-15.36
871.619	142.33
871.801	119.81
871.982	-35.84
872.163	80.89
872.344	60.42
872.525	35.84
872.706	93.18
872.887	29.7
873.068	70.65
873.249	84.99
873.43	50.18
873.61	11.26
873.791	103.42
873.972	99.33
874.153	132.09
874.334	89.09
874.515	-54.27
874.696	7.17
874.877	-33.79
875.058	68.61
875.238	84.99
875.419	84.99
875.6	-23.55
875.781	-27.65
875.962	134.14
876.142	60.42
876.323	103.42
876.504	-23.55
876.685	-5.12
876.865	179.2
877.046	95.23
877.227	-11.26
877.407	60.42
877.588	66.56
877.769	136.19
877.949	41.98
878.13	-35.84
878.311	11.26
878.491	58.37
878.672	58.37
878.853	37.89
879.033	76.8
879.214	29.7
879.394	-25.6
879.575	35.84
879.755	-23.55
879.936	-15.36
880.116	-29.7
880.297	1.02
880.477	54.27
880.658	-54.27
880.838	-9.22
881.019	-35.84
881.199	5.12
881.38	23.55
881.56	64.51
881.74	11.26
881.921	74.75
882.101	123.9
882.281	5.12
882.462	-13.31
882.642	56.32
882.822	-19.46
883.003	-13.31
883.183	64.51
883.363	21.5
883.544	11.26
883.724	5.12
883.904	54.27
884.084	46.08
884.265	39.94
884.445	142.33
884.625	58.37
884.805	93.18
884.985	-1.02
885.166	-17.41
885.346	-19.46
885.526	72.7
885.706	82.94
885.886	82.94
886.066	105.47
886.246	3.07
886.426	7.17
886.606	101.37
886.787	-11.26
886.967	105.47
887.147	89.09
887.327	58.37
887.507	27.65
887.687	211.96
887.867	-17.41
888.047	119.81
888.227	89.09
888.406	56.32
888.586	-41.98
888.766	19.46
888.946	62.46
889.126	19.46
889.306	56.32
889.486	58.37
889.666	-31.74
889.846	117.76
890.025	64.51
890.205	58.37
890.385	107.52
890.565	33.79
890.745	3.07
890.924	54.27
891.104	-3.07
891.284	52.22
891.464	111.61
891.643	109.57
891.823	-11.26
892.003	70.65
892.183	123.9
892.362	60.42
892.542	27.65
892.722	21.5
892.901	-105.47
893.081	44.03
893.26	64.51
893.44	25.6
893.62	91.13
893.799	-11.26
893.979	132.09
894.158	-111.61
894.338	50.18
894.517	37.89
894.697	89.09
894.877	-17.41
895.056	35.84
895.236	80.89
895.415	44.03
895.594	142.33
895.774	41.98
895.953	29.7
896.133	48.13
896.312	74.75
896.492	111.61
896.671	29.7
896.85	-7.17
897.03	58.37
897.209	72.7
897.388	80.89
897.568	62.46
897.747	109.57
897.926	35.84
898.106	148.48
898.285	142.33
898.464	60.42
898.643	15.36
898.823	3.07
899.002	-54.27
899.181	25.6
899.36	-52.22
899.54	-19.46
899.719	-9.22
899.898	21.5
900.077	13.31
900.256	80.89
900.435	68.61
900.614	-64.51
900.794	70.65
900.973	113.66
901.152	109.57
901.331	128
901.51	-31.74
901.689	113.66
901.868	111.61
902.047	56.32
902.226	23.55
902.405	5.12
902.584	-27.65
902.763	-17.41
902.942	140.29
903.121	56.32
903.3	13.31
903.479	-3.07
903.658	130.05
903.837	60.42
904.015	50.18
904.194	109.57
904.373	82.94
904.552	-31.74
904.731	29.7
904.91	109.57
905.089	138.24
905.267	84.99
905.446	19.46
905.625	91.13
905.804	80.89
905.982	21.5
906.161	74.75
906.34	-91.13
906.519	31.74
906.697	-13.31
906.876	62.46
907.055	23.55
907.233	15.36
907.412	27.65
907.591	74.75
907.769	74.75
907.948	29.7
908.127	56.32
908.305	-15.36
908.484	113.66
908.662	5.12
908.841	95.23
909.019	-7.17
909.198	-21.5
909.377	87.04
909.555	15.36
909.734	189.44
909.912	91.13
910.09	58.37
910.269	82.94
910.447	58.37
910.626	84.99
910.804	-39.94
910.983	35.84
911.161	-19.46
911.339	117.76
911.518	-5.12
911.696	-48.13
911.875	-72.7
912.053	142.33
912.231	-46.08
912.41	117.76
912.588	89.09
912.766	-44.03
912.944	383.99
913.123	2247.65
913.301	3568.59
913.479	916.47
913.657	91.13
913.836	134.14
914.014	-7.17
914.192	54.27
914.37	82.94
914.548	1.02
914.727	140.29
914.905	115.71
915.083	15.36
915.261	95.23
915.439	19.46
915.617	72.7
915.795	15.36
915.973	-9.22
916.151	5.12
916.329	130.05
916.508	13.31
916.686	-5.12
916.864	37.89
917.042	33.79
917.22	82.94
917.398	121.85
917.575	64.51
917.753	3.07
917.931	78.85
918.109	-1.02
918.287	48.13
918.465	31.74
918.643	156.67
918.821	-60.42
918.999	107.52
919.177	33.79
919.354	158.72
919.532	115.71
919.71	1.02
919.888	101.37
920.066	56.32
920.243	70.65
920.421	87.04
920.599	23.55
920.777	-37.89
920.954	113.66
921.132	125.95
921.31	48.13
921.488	130.05
921.665	-11.26
921.843	21.5
922.021	-17.41
922.198	-13.31
922.376	46.08
922.553	128
922.731	119.81
922.909	54.27
923.086	19.46
923.264	62.46
923.441	56.32
923.619	23.55
923.796	-9.22
923.974	17.41
924.152	-39.94
924.329	-9.22
924.507	-60.42
924.684	25.6
924.861	109.57
925.039	50.18
925.216	-29.7
925.394	33.79
925.571	33.79
925.749	46.08
925.926	41.98
926.103	-74.75
926.281	101.37
926.458	-15.36
926.635	68.61
926.813	-3.07
926.99	-46.08
927.167	-15.36
927.345	-7.17
927.522	17.41
927.699	33.79
927.876	123.9
928.054	-19.46
928.231	-70.65
928.408	-3.07
928.585	-27.65
928.763	19.46
928.94	181.25
929.117	91.13
929.294	39.94
929.471	-23.55
929.648	17.41
929.825	46.08
930.003	25.6
930.18	-37.89
930.357	56.32
930.534	13.31
930.711	-3.07
930.888	103.42
931.065	29.7
931.242	-66.56
931.419	35.84
931.596	-1.02
931.773	-23.55
931.95	31.74
932.127	27.65
932.304	1.02
932.481	82.94
932.658	-82.94
932.835	25.6
933.011	17.41
933.188	37.89
933.365	109.57
933.542	62.46
933.719	70.65
933.896	23.55
934.073	-60.42
934.249	54.27
934.426	9.22
934.603	29.7
934.78	80.89
934.957	37.89
935.133	168.96
935.31	220.16
935.487	87.04
935.664	62.46
935.84	87.04
936.017	15.36
936.194	103.42
936.37	-84.99
936.547	-9.22
936.724	39.94
936.9	39.94
937.077	-27.65
937.253	95.23
937.43	-89.09
937.607	66.56
937.783	-91.13
937.96	31.74
938.136	214.01
938.313	109.57
938.489	41.98
938.666	25.6
938.842	78.85
939.019	48.13
939.195	-7.17
939.372	52.22
939.548	146.43
939.725	109.57
939.901	-33.79
940.077	91.13
940.254	23.55
940.43	-15.36
940.607	13.31
940.783	-60.42
940.959	-15.36
941.136	119.81
941.312	5.12
941.488	35.84
941.665	80.89
941.841	121.85
942.017	29.7
942.193	162.81
942.37	46.08
942.546	52.22
942.722	70.65
942.898	-62.46
943.074	-11.26
943.251	60.42
943.427	-23.55
943.603	173.05
943.779	13.31
943.955	146.43
944.131	48.13
944.308	97.28
944.484	-35.84
944.66	162.81
944.836	-44.03
945.012	-62.46
945.188	-9.22
945.364	66.56
945.54	-19.46
945.716	-25.6
945.892	142.33
946.068	58.37
946.244	80.89
946.42	48.13
946.596	78.85
946.772	70.65
946.948	-13.31
947.124	1.02
947.3	117.76
947.475	175.1
947.651	19.46
947.827	-33.79
948.003	-31.74
948.179	125.95
948.355	-3.07
948.531	76.8
948.706	35.84
948.882	44.03
949.058	-56.32
949.234	140.29
949.409	19.46
949.585	-31.74
949.761	11.26
949.937	-7.17
950.112	41.98
950.288	91.13
950.464	97.28
950.639	158.72
950.815	39.94
950.991	19.46
951.166	101.37
951.342	109.57
951.518	70.65
951.693	-3.07
951.869	-60.42
952.044	66.56
952.22	128
952.395	-25.6
952.571	80.89
952.747	97.28
952.922	27.65
953.098	115.71
953.273	95.23
953.448	-19.46
953.624	35.84
953.799	93.18
953.975	78.85
954.15	19.46
954.326	80.89
954.501	37.89
954.676	56.32
954.852	-3.07
955.027	58.37
955.203	50.18
955.378	105.47
955.553	189.44
955.729	54.27
955.904	-58.37
956.079	68.61
956.254	185.34
956.43	29.7
956.605	197.63
956.78	-82.94
956.955	97.28
957.131	-27.65
957.306	23.55
957.481	15.36
957.656	21.5
957.831	64.51
958.007	-50.18
958.182	72.7
958.357	154.62
958.532	-25.6
958.707	105.47
958.882	54.27
959.057	19.46
959.232	15.36
959.407	-5.12
959.582	132.09
959.757	148.48
959.932	115.71
960.107	62.46
960.282	52.22
960.457	158.72
960.632	-29.7
960.807	80.89
960.982	56.32
961.157	-1.02
961.332	41.98
961.507	-23.55
961.682	-35.84
961.857	68.61
962.032	95.23
962.206	-72.7
962.381	-17.41
962.556	60.42
962.731	62.46
962.906	17.41
963.081	7.17
963.255	13.31
963.43	-19.46
963.605	121.85
963.78	19.46
963.954	19.46
964.129	93.18
964.304	25.6
964.479	87.04
964.653	9.22
964.828	39.94
965.003	48.13
965.177	37.89
965.352	-7.17
965.526	33.79
965.701	89.09
965.876	82.94
966.05	-56.32
966.225	66.56
966.399	23.55
966.574	27.65
966.748	27.65
966.923	64.51
967.098	54.27
967.272	-25.6
967.446	7.17
967.621	93.18
967.795	76.8
967.97	-21.5
968.144	84.99
968.319	13.31
968.493	-25.6
968.668	130.05
968.842	9.22
969.016	84.99
969.191	11.26
969.365	-19.46
969.539	-11.26
969.714	33.79
969.888	9.22
970.062	74.75
970.237	39.94
970.411	41.98
970.585	119.81
970.759	80.89
970.934	27.65
971.108	144.38
971.282	-7.17
971.456	-76.8
971.63	23.55
971.805	-11.26
971.979	91.13
972.153	-64.51
972.327	93.18
972.501	-1.02
972.675	78.85
972.849	-17.41
973.024	68.61
973.198	-41.98
973.372	-35.84
973.546	132.09
973.72	-19.46
973.894	84.99
974.068	62.46
974.242	101.37
974.416	-23.55
974.59	-1.02
974.764	-72.7
974.938	7.17
975.112	-9.22
975.286	62.46
975.46	111.61
975.633	-62.46
975.807	125.95
975.981	37.89
976.155	76.8
976.329	101.37
976.503	35.84
976.677	48.13
976.85	93.18
977.024	-25.6
977.198	-15.36
977.372	17.41
977.546	70.65
977.719	-70.65
977.893	105.47
978.067	-21.5
978.241	68.61
978.414	-50.18
978.588	9.22
978.762	41.98
978.935	64.51
979.109	11.26
979.283	82.94
979.456	154.62
979.63	33.79
979.804	21.5
979.977	68.61
980.151	-9.22
980.324	70.65
980.498	-1.02
980.671	113.66
980.845	-37.89
981.018	87.04
981.192	-82.94
981.365	164.86
981.539	52.22
981.712	33.79
981.886	-13.31
982.059	-19.46
982.233	-21.5
982.406	5.12
982.58	87.04
982.753	123.9
982.926	21.5
983.1	146.43
983.273	9.22
983.446	48.13
983.62	72.7
983.793	7.17
983.966	21.5
984.14	-54.27
984.313	1.02
984.486	128
984.66	5.12
984.833	154.62
985.006	44.03
985.179	19.46
985.352	-33.79
985.526	23.55
985.699	-19.46
985.872	95.23
986.045	80.89
986.218	9.22
986.391	50.18
986.565	80.89
986.738	29.7
986.911	-41.98
987.084	33.79
987.257	82.94
987.43	-50.18
987.603	99.33
987.776	82.94
987.949	111.61
988.122	35.84
988.295	-33.79
988.468	-87.04
988.641	105.47
988.814	7.17
988.987	23.55
989.16	23.55
989.333	-39.94
989.506	35.84
989.679	41.98
989.852	138.24
990.025	87.04
990.197	17.41
990.37	76.8
990.543	-80.89
990.716	-9.22
990.889	101.37
991.062	-68.61
991.234	56.32
991.407	-107.52
991.58	113.66
991.753	37.89
991.925	39.94
992.098	-15.36
992.271	-5.12
992.444	21.5
992.616	-17.41
992.789	76.8
992.962	23.55
993.134	27.65
993.307	-11.26
993.479	31.74
993.652	93.18
993.825	101.37
993.997	33.79
994.17	-54.27
994.342	-9.22
994.515	-23.55
994.688	-1.02
994.86	117.76
995.033	29.7
995.205	60.42
995.378	158.72
995.55	15.36
995.723	-29.7
995.895	41.98
996.067	111.61
996.24	74.75
996.412	74.75
996.585	-19.46
996.757	103.42
996.929	31.74
997.102	33.79
997.274	-13.31
997.447	62.46
997.619	60.42
997.791	68.61
997.964	-101.37
998.136	105.47
998.308	27.65
998.48	111.61
998.653	66.56
998.825	-1.02
998.997	74.75
999.169	5.12
999.342	21.5
999.514	-37.89
999.686	91.13
999.858	1.02
1000.03	164.86
1000.202	-9.22
1000.374	-82.94
1000.547	-17.41
1000.719	-62.46
1000.891	41.98
1001.063	-66.56
1001.235	27.65
1001.407	-23.55
1001.579	76.8
1001.751	68.61
1001.923	-70.65
1002.095	19.46
1002.267	82.94
1002.439	-44.03
1002.611	44.03
1002.783	117.76
1002.955	80.89
1003.127	33.79
1003.299	76.8
1003.471	62.46
1003.643	119.81
1003.815	33.79
1003.986	-11.26
1004.158	82.94
1004.33	15.36
1004.502	-31.74
1004.674	17.41
1004.846	123.9
1005.017	-39.94
1005.189	21.5
1005.361	66.56
1005.533	-39.94
1005.704	5.12
1005.876	48.13
1006.048	54.27
1006.22	5.12
1006.391	-41.98
1006.563	27.65
1006.735	50.18
1006.906	9.22
1007.078	-187.39
1007.25	60.42
1007.421	-1.02
1007.593	15.36
1007.764	33.79
1007.936	142.33
1008.108	39.94
1008.279	101.37
1008.451	-9.22
1008.622	72.7
1008.794	-17.41
1008.965	140.29
1009.137	93.18
1009.308	5.12
1009.48	46.08
1009.651	132.09
1009.823	7.17
1009.994	9.22
1010.165	80.89
1010.337	-87.04
1010.508	35.84
1010.68	144.38
1010.851	70.65
1011.022	-76.8
1011.194	56.32
1011.365	-11.26
1011.536	19.46
1011.708	-21.5
1011.879	125.95
1012.05	97.28
1012.222	95.23
1012.393	-1.02
1012.564	74.75
1012.735	136.19
1012.906	105.47
1013.078	76.8
1013.249	-13.31
1013.42	-13.31
1013.591	62.46
1013.762	148.48
1013.934	148.48
1014.105	37.89
1014.276	148.48
1014.447	37.89
1014.618	121.85
1014.789	37.89
1014.96	107.52
1015.131	76.8
1015.302	123.9
1015.473	74.75
1015.644	-3.07
1015.815	-58.37
1015.986	13.31
1016.157	-27.65
1016.328	3.07
1016.499	44.03
1016.67	76.8
1016.841	132.09
1017.012	164.86
1017.183	9.22
1017.354	19.46
1017.525	107.52
1017.696	31.74
1017.867	-17.41
1018.037	93.18
1018.208	138.24
1018.379	54.27
1018.55	35.84
1018.721	39.94
1018.891	60.42
1019.062	44.03
1019.233	21.5
1019.404	56.32
1019.574	-7.17
1019.745	-11.26
1019.916	13.31
1020.087	19.46
1020.257	-91.13
1020.428	-115.71
1020.599	17.41
1020.769	41.98
1020.94	19.46
1021.11	166.91
1021.281	-37.89
1021.452	35.84
1021.622	-19.46
1021.793	37.89
1021.963	111.61
1022.134	-80.89
1022.305	-7.17
1022.475	84.99
1022.646	166.91
1022.816	11.26
1022.987	35.84
1023.157	29.7
1023.327	-7.17
1023.498	3.07
1023.668	5.12
1023.839	44.03
1024.009	19.46
1024.18	101.37
1024.35	21.5
1024.52	93.18
1024.691	44.03
1024.861	-23.55
1025.031	7.17
1025.202	-7.17
1025.372	58.37
1025.542	-25.6
1025.713	128
1025.883	54.27
1026.053	113.66
1026.223	89.09
1026.394	39.94
1026.564	154.62
1026.734	-17.41
1026.904	74.75
1027.074	-80.89
1027.245	17.41
1027.415	-17.41
1027.585	80.89
1027.755	25.6
1027.925	-121.85
1028.095	23.55
1028.265	103.42
1028.435	27.65
1028.606	25.6
1028.776	-23.55
1028.946	70.65
1029.116	50.18
1029.286	19.46
1029.456	37.89
1029.626	29.7
1029.796	-39.94
1029.966	68.61
1030.136	11.26
1030.306	7.17
1030.475	156.67
1030.645	-15.36
1030.815	72.7
1030.985	62.46
1031.155	82.94
1031.325	35.84
1031.495	-39.94
1031.665	-27.65
1031.835	125.95
1032.004	66.56
1032.174	-44.03
1032.344	48.13
1032.514	3.07
1032.684	-31.74
1032.853	44.03
1033.023	64.51
1033.193	82.94
1033.362	-21.5
1033.532	27.65
1033.702	27.65
1033.872	142.33
1034.041	17.41
1034.211	175.1
1034.381	-33.79
1034.55	-48.13
1034.72	-23.55
1034.889	111.61
1035.059	76.8
1035.229	35.84
1035.398	13.31
1035.568	93.18
1035.737	-1.02
1035.907	-23.55
1036.076	-29.7
1036.246	-56.32
1036.415	109.57
1036.585	23.55
1036.754	54.27
1036.924	54.27
1037.093	89.09
1037.263	52.22
1037.432	107.52
1037.601	68.61
1037.771	13.31
1037.94	21.5
1038.11	-72.7
1038.279	-23.55
1038.448	-128
1038.618	-52.22
1038.787	1.02
1038.956	-84.99
1039.126	21.5
1039.295	66.56
1039.464	-9.22
1039.633	3.07
1039.803	-68.61
1039.972	154.62
1040.141	17.41
1040.31	-9.22
1040.479	80.89
1040.649	87.04
1040.818	-97.28
1040.987	-35.84
1041.156	31.74
1041.325	41.98
1041.494	-7.17
1041.663	27.65
1041.833	46.08
1042.002	21.5
1042.171	13.31
1042.34	-13.31
1042.509	107.52
1042.678	115.71
