Data from LSP62_S11_Subt4_17-10-21-104.txt Node
Date: Wed Aug 09 17:10:21 EDT 2023
User: Emmanuel
Spectrometer: USB4A00615
Scans to average: 1
Trigger mode: 1
Integration Time (sec): 1.300000E-2
Electric dark correction enabled: true
Boxcar width: 0
XAxis mode: Wavelengths
Number of Pixels in Spectrum: 3648
>>>>>Begin Spectral Data<<<<<
346.606	5.12
346.818	5.12
347.029	5.12
347.241	117.76
347.452	91.13
347.664	-19.46
347.876	-132.09
348.087	5.12
348.299	-44.03
348.51	-58.37
348.722	95.23
348.933	97.28
349.145	33.79
349.356	84.99
349.568	17.41
349.779	-103.42
349.991	23.55
350.202	27.65
350.414	-19.46
350.625	-78.85
350.836	60.42
351.048	-17.41
351.259	-31.74
351.471	-13.31
351.682	58.37
351.893	-15.36
352.105	62.46
352.316	-9.22
352.527	-58.37
352.739	15.36
352.95	31.74
353.161	-58.37
353.372	-5.12
353.584	68.61
353.795	-52.22
354.006	37.89
354.217	7.17
354.429	-7.17
354.64	-3.07
354.851	74.75
355.062	37.89
355.274	87.04
355.485	97.28
355.696	25.6
355.907	27.65
356.118	25.6
356.329	5.12
356.54	7.17
356.752	46.08
356.963	23.55
357.174	-58.37
357.385	29.7
357.596	72.7
357.807	-13.31
358.018	31.74
358.229	60.42
358.44	-66.56
358.651	17.41
358.862	-37.89
359.073	-37.89
359.284	37.89
359.495	9.22
359.706	15.36
359.917	-3.07
360.128	29.7
360.339	-7.17
360.55	-97.28
360.761	-9.22
360.972	-3.07
361.182	19.46
361.393	-33.79
361.604	58.37
361.815	-33.79
362.026	105.47
362.237	-29.7
362.447	52.22
362.658	-66.56
362.869	1.02
363.08	-3.07
363.291	56.32
363.501	31.74
363.712	-50.18
363.923	-21.5
364.134	-66.56
364.344	-72.7
364.555	-19.46
364.766	-1.02
364.976	-41.98
365.187	21.5
365.398	58.37
365.608	74.75
365.819	62.46
366.03	66.56
366.24	-78.85
366.451	-64.51
366.662	125.95
366.872	-64.51
367.083	95.23
367.293	37.89
367.504	68.61
367.714	7.17
367.925	128
368.135	-29.7
368.346	25.6
368.557	-62.46
368.767	-3.07
368.977	-15.36
369.188	54.27
369.398	68.61
369.609	27.65
369.819	-50.18
370.03	35.84
370.24	-60.42
370.451	-89.09
370.661	66.56
370.871	-70.65
371.082	41.98
371.292	-29.7
371.502	23.55
371.713	7.17
371.923	-17.41
372.133	-64.51
372.344	89.09
372.554	21.5
372.764	-60.42
372.975	31.74
373.185	-44.03
373.395	44.03
373.605	-29.7
373.816	84.99
374.026	25.6
374.236	-76.8
374.446	-37.89
374.656	-41.98
374.867	35.84
375.077	-17.41
375.287	46.08
375.497	-111.61
375.707	-25.6
375.917	35.84
376.127	82.94
376.338	125.95
376.548	41.98
376.758	48.13
376.968	-19.46
377.178	29.7
377.388	11.26
377.598	87.04
377.808	11.26
378.018	-23.55
378.228	87.04
378.438	-21.5
378.648	-11.26
378.858	-23.55
379.068	-17.41
379.278	80.89
379.488	-19.46
379.698	52.22
379.908	44.03
380.118	25.6
380.327	33.79
380.537	27.65
380.747	-13.31
380.957	48.13
381.167	72.7
381.377	-21.5
381.587	7.17
381.796	3.07
382.006	-41.98
382.216	-27.65
382.426	-50.18
382.636	13.31
382.845	27.65
383.055	17.41
383.265	-33.79
383.475	-84.99
383.684	-25.6
383.894	-52.22
384.104	138.24
384.313	37.89
384.523	-15.36
384.733	93.18
384.942	154.62
385.152	17.41
385.362	29.7
385.571	56.32
385.781	-123.9
385.991	-31.74
386.2	7.17
386.41	-15.36
386.619	-13.31
386.829	87.04
387.038	27.65
387.248	70.65
387.457	39.94
387.667	7.17
387.876	-17.41
388.086	13.31
388.295	52.22
388.505	27.65
388.714	125.95
388.924	50.18
389.133	33.79
389.343	68.61
389.552	21.5
389.762	-23.55
389.971	41.98
390.18	25.6
390.39	52.22
390.599	21.5
390.808	-54.27
391.018	21.5
391.227	44.03
391.436	-50.18
391.646	44.03
391.855	84.99
392.064	-56.32
392.274	50.18
392.483	-91.13
392.692	-62.46
392.901	-56.32
393.111	-21.5
393.32	-31.74
393.529	3.07
393.738	58.37
393.947	74.75
394.157	-9.22
394.366	-31.74
394.575	54.27
394.784	64.51
394.993	54.27
395.202	-5.12
395.411	60.42
395.62	125.95
395.83	185.34
396.039	119.81
396.248	93.18
396.457	99.33
396.666	111.61
396.875	236.54
397.084	128
397.293	80.89
397.502	138.24
397.711	121.85
397.92	164.86
398.129	13.31
398.338	109.57
398.547	78.85
398.756	23.55
398.965	136.19
399.174	-76.8
399.382	72.7
399.591	-13.31
399.8	13.31
400.009	50.18
400.218	87.04
400.427	-82.94
400.636	35.84
400.844	19.46
401.053	107.52
401.262	500.73
401.471	744.44
401.68	195.58
401.888	265.21
402.097	230.4
402.306	-58.37
402.515	142.33
402.723	-33.79
402.932	271.36
403.141	21.5
403.35	109.57
403.558	152.57
403.767	-19.46
403.976	64.51
404.184	125.95
404.393	150.53
404.602	80.89
404.81	201.72
405.019	697.33
405.227	304.12
405.436	205.82
405.645	138.24
405.853	136.19
406.062	60.42
406.27	99.33
406.479	13.31
406.687	-68.61
406.896	31.74
407.104	99.33
407.313	281.6
407.521	613.37
407.73	1661.93
407.938	1510.38
408.147	306.17
408.355	101.37
408.563	257.02
408.772	64.51
408.98	33.79
409.189	105.47
409.397	48.13
409.605	3.07
409.814	160.77
410.022	33.79
410.23	11.26
410.439	197.63
410.647	959.47
410.855	672.76
411.064	87.04
411.272	95.23
411.48	168.96
411.688	82.94
411.897	9.22
412.105	130.05
412.313	70.65
412.521	89.09
412.73	164.86
412.938	289.79
413.146	80.89
413.354	78.85
413.562	95.23
413.77	287.74
413.979	134.14
414.187	539.64
414.395	326.65
414.603	144.38
414.811	261.12
415.019	388.09
415.227	295.93
415.435	156.67
415.643	101.37
415.851	732.15
416.059	633.85
416.267	1594.34
416.475	2411.48
416.683	3498.95
416.891	1184.75
417.099	1281
417.307	2624.47
417.515	2479.07
417.723	670.71
417.931	726
418.139	1008.62
418.347	320.51
418.555	289.79
418.763	969.71
418.971	670.71
419.179	400.38
419.386	427
419.594	1440.75
419.802	1991.65
420.01	1176.56
420.218	2159.58
420.426	5655.47
420.633	4373.44
420.841	3920.84
421.049	2829.27
421.257	2716.63
421.464	1262.57
421.672	957.43
421.88	1123.31
422.088	1244.14
422.295	644.09
422.503	328.7
422.711	723.96
422.918	447.48
423.126	117.76
423.334	240.64
423.541	486.39
423.749	125.95
423.956	330.75
424.164	283.64
424.372	388.09
424.579	615.41
424.787	635.89
424.994	537.59
425.202	715.77
425.409	267.26
425.617	406.52
425.824	1238
426.032	666.61
426.239	1321.96
426.447	2112.48
426.654	3118.03
426.862	1958.88
427.069	3412.94
427.277	3818.44
427.484	4672.44
427.692	3097.55
427.899	2366.43
428.106	2593.75
428.314	1733.61
428.521	973.81
428.728	846.84
428.936	615.41
429.143	762.87
429.351	459.77
429.558	1797.09
429.765	2989.01
429.972	1414.12
430.18	879.6
430.387	4205.5
430.594	3490.76
430.801	2229.21
431.009	1860.58
431.216	869.36
431.423	777.2
431.63	209.92
431.838	363.51
432.045	437.24
432.252	801.78
432.459	334.84
432.666	324.6
432.873	883.7
433.081	1244.14
433.288	1070.06
433.495	775.16
433.702	2997.2
433.909	2032.61
434.116	1571.82
434.323	1219.57
434.53	1926.11
434.737	2939.86
434.944	2538.46
435.151	1493.99
435.358	1723.37
435.565	1326.06
435.772	539.64
435.979	371.71
436.186	1287.15
436.393	521.21
436.6	609.27
436.807	570.36
437.014	986.1
437.221	805.88
437.428	1012.72
437.635	510.97
437.841	1111.02
438.048	1530.86
438.255	470.01
438.462	492.54
438.669	1291.24
438.876	1074.16
439.082	685.05
439.289	697.33
439.496	1033.2
439.703	691.19
439.91	1295.34
440.116	1252.33
440.323	1799.14
440.53	1143.79
440.737	1252.33
440.943	1383.4
441.15	1985.51
441.357	2010.08
441.563	1045.49
441.77	504.82
441.977	1897.44
442.183	2092
442.39	1620.97
442.597	1813.48
442.803	1919.97
443.01	2010.08
443.216	1250.28
443.423	607.22
443.63	1594.34
443.836	2065.38
444.043	1881.06
444.249	818.16
444.456	1678.31
444.662	2067.42
444.869	1326.06
445.075	1315.82
445.282	1174.51
445.488	1313.77
445.695	2110.43
445.901	754.68
446.107	1555.43
446.314	1498.09
446.52	2472.92
446.727	1649.64
446.933	1217.52
447.139	1270.76
447.346	1600.49
447.552	1022.96
447.759	1035.25
447.965	982
448.171	1401.83
448.378	1805.28
448.584	2073.57
448.79	1424.36
448.996	1444.84
449.203	1502.19
449.409	1604.58
449.615	803.83
449.821	1207.28
450.028	1168.37
450.234	1121.26
450.44	1111.02
450.646	1352.68
450.852	1524.71
451.059	1272.81
451.265	1852.39
451.471	1592.3
451.677	2143.2
451.883	1330.16
452.089	797.68
452.295	777.2
452.502	754.68
452.708	1897.44
452.914	1041.39
453.12	1846.24
453.326	898.03
453.532	2288.61
453.738	836.6
453.944	646.13
454.15	529.4
454.356	2304.99
454.562	1498.09
454.768	986.1
454.974	654.33
455.18	1006.58
455.386	1170.41
455.592	785.4
455.798	551.93
456.003	588.79
456.209	758.77
456.415	654.33
456.621	777.2
456.827	875.51
457.033	736.24
457.239	801.78
457.444	222.2
457.65	615.41
457.856	441.34
458.062	926.71
458.268	482.3
458.473	814.07
458.679	674.81
458.885	1434.6
459.091	840.69
459.296	1356.78
459.502	308.22
459.708	1108.98
459.914	973.81
460.119	1938.4
460.325	535.54
460.531	603.13
460.736	1172.46
460.942	1074.16
461.147	830.45
461.353	920.56
461.559	424.95
461.764	1248.24
461.97	920.56
462.175	998.38
462.381	568.31
462.587	965.62
462.792	541.69
462.998	895.99
463.203	377.85
463.409	1653.73
463.614	1092.59
463.82	1344.49
464.025	953.33
464.231	1373.16
464.436	728.05
464.641	654.33
464.847	793.59
465.052	1100.78
465.258	396.28
465.463	1952.74
465.669	3349.45
465.874	2907.09
466.079	1813.48
466.285	1061.87
466.49	566.26
466.695	1334.25
466.901	938.99
467.106	1168.37
467.311	605.17
467.516	1381.35
467.722	1985.51
467.927	3369.93
468.132	1479.66
468.338	1309.68
468.543	883.7
468.748	971.76
468.953	723.96
469.158	2827.22
469.364	1717.22
469.569	1907.68
469.774	1192.94
469.979	1999.84
470.184	1209.33
470.389	1903.59
470.594	1250.28
470.8	2323.42
471.005	1471.47
471.21	2499.55
471.415	801.78
471.62	1743.85
471.825	1651.69
472.03	2024.42
472.235	1825.76
472.44	2081.76
472.645	1950.69
472.85	2108.38
473.055	2132.96
473.26	1899.49
473.465	973.81
473.67	1854.44
473.875	1696.74
474.08	2010.08
474.285	943.09
474.49	1922.02
474.695	1383.4
474.899	2261.98
475.104	2378.72
475.309	2712.53
475.514	1866.72
475.719	3458
475.924	2208.73
476.128	1879.01
476.333	2235.36
476.538	2309.08
476.743	824.31
476.948	2110.43
477.152	2315.23
477.357	2360.28
477.562	1502.19
477.767	1971.17
477.971	1803.24
478.176	1881.06
478.381	1375.21
478.585	2116.58
478.79	1082.35
478.995	2454.49
479.199	2081.76
479.404	1991.65
479.609	1430.51
479.813	2372.57
480.018	1772.52
480.223	3279.82
480.427	3308.49
480.632	2182.11
480.836	1123.31
481.041	2796.5
481.245	2407.39
481.45	2466.78
481.654	2126.82
481.859	1670.12
482.063	1551.34
482.268	2765.78
482.472	2753.49
482.677	2077.66
482.881	1997.79
483.086	1852.39
483.29	1831.91
483.495	2841.56
483.699	2870.23
483.903	4975.54
484.108	5446.57
484.312	4961.2
484.517	2993.11
484.721	2585.56
484.925	2278.37
485.13	2223.07
485.334	1356.78
485.538	2274.27
485.743	2358.24
485.947	2403.29
486.151	2079.71
486.355	1879.01
486.56	1747.94
486.764	2874.32
486.968	2149.34
487.172	1872.87
487.377	2182.11
487.581	1874.92
487.785	1379.31
487.989	3238.86
488.193	4713.4
488.397	4498.36
488.602	3132.37
488.806	2466.78
489.01	1856.48
489.214	2014.18
489.418	1649.64
489.622	1651.69
489.826	1164.27
490.03	2192.35
490.234	1965.03
490.438	2100.19
490.642	1747.94
490.846	1092.59
491.05	1014.77
491.254	1971.17
491.458	1403.88
491.662	2204.64
491.866	1151.98
492.07	1131.5
492.274	1096.69
492.478	2055.14
492.682	1276.91
492.886	2010.08
493.09	1143.79
493.294	885.75
493.498	949.23
493.701	1491.95
493.905	1252.33
494.109	1766.37
494.313	918.51
494.517	1315.82
494.721	1029.1
494.924	1524.71
495.128	1270.76
495.332	1977.31
495.536	1135.6
495.739	1080.3
495.943	918.51
496.147	1037.3
496.351	996.34
496.554	2098.14
496.758	785.4
496.962	680.95
497.165	578.55
497.369	1461.23
497.573	2073.57
497.776	3687.37
497.98	1594.34
498.184	1899.49
498.387	1913.83
498.591	1915.87
498.794	1225.71
498.998	1555.43
499.202	617.46
499.405	988.14
499.609	699.38
499.812	1180.65
500.016	2460.63
500.219	4637.63
500.423	1905.63
500.626	1659.88
500.83	1344.49
501.033	3025.87
501.237	2890.71
501.44	2946
501.643	1119.21
501.847	1264.62
502.05	721.91
502.254	1676.26
502.457	1602.54
502.66	2268.13
502.864	803.83
503.067	1082.35
503.271	1006.58
503.474	996.34
503.677	1377.26
503.88	1606.63
504.084	906.23
504.287	1291.24
504.49	1205.23
504.694	2819.03
504.897	5491.63
505.1	5497.77
505.303	2677.72
505.507	2202.59
505.71	1205.23
505.913	1704.93
506.116	805.88
506.319	2329.56
506.522	4633.53
506.726	3587.02
506.929	2280.41
507.132	2040.8
507.335	310.27
507.538	838.64
507.741	1729.51
507.944	977.91
508.147	1147.89
508.35	1799.14
508.553	832.5
508.756	1246.19
508.959	678.9
509.163	1162.22
509.366	951.28
509.569	2085.86
509.771	879.6
509.974	1559.53
510.177	1154.03
510.38	1729.51
510.583	1645.54
510.786	1672.17
510.989	1377.26
511.192	1463.27
511.395	642.04
511.598	961.52
511.801	740.34
512.004	1770.47
512.206	1469.42
512.409	2001.89
512.612	1096.69
512.815	1422.31
513.018	1197.04
513.22	1475.56
513.423	941.04
513.626	1418.22
513.829	1287.15
514.032	2333.66
514.234	1051.63
514.437	1172.46
514.64	1491.95
514.842	1491.95
515.045	1682.41
515.248	1883.11
515.45	1051.63
515.653	1588.2
515.856	850.93
516.058	1068.02
516.261	1684.45
516.464	850.93
516.666	961.52
516.869	1979.36
517.071	920.56
517.274	1524.71
517.477	873.46
517.679	1436.65
517.882	1975.27
518.084	1905.63
518.287	1620.97
518.489	2356.19
518.692	1661.93
518.894	1846.24
519.097	1121.26
519.299	1192.94
519.501	2395.1
519.704	2499.55
519.906	2327.52
520.109	2853.84
520.311	711.67
520.514	1860.58
520.716	1262.57
520.918	1258.48
521.121	2141.15
521.323	2264.03
521.525	1188.85
521.728	3193.81
521.93	3113.94
522.132	2229.21
522.335	1598.44
522.537	1938.4
522.739	1459.18
522.941	2067.42
523.144	1070.06
523.346	2018.27
523.548	1190.89
523.75	1926.11
523.952	1233.9
524.155	1248.24
524.357	1201.13
524.559	2016.23
524.761	1416.17
524.963	2421.72
525.165	1151.98
525.368	2061.28
525.57	1594.34
525.772	1913.83
525.974	1776.61
526.176	1709.03
526.378	1123.31
526.58	1797.09
526.782	1121.26
526.984	1678.31
527.186	1319.92
527.388	881.65
527.59	1115.12
527.792	1788.9
527.994	1018.86
528.196	2249.69
528.398	969.71
528.6	1950.69
528.802	472.06
529.004	1104.88
529.206	967.67
529.408	2075.62
529.609	1260.52
529.811	2292.7
530.013	1205.23
530.215	1727.46
530.417	1289.2
530.619	1330.16
530.821	1432.55
531.022	1471.47
531.224	1489.9
531.426	2958.29
531.628	1557.48
531.829	2178.01
532.031	1332.2
532.233	1500.14
532.435	1369.07
532.636	916.47
532.838	1489.9
533.04	2010.08
533.241	1389.55
533.443	2548.7
533.645	1879.01
533.846	1977.31
534.048	1678.31
534.25	2122.72
534.451	2137.06
534.653	1928.16
534.855	1606.63
535.056	2833.36
535.258	1383.4
535.459	2567.13
535.661	1233.9
535.862	1985.51
536.064	1317.87
536.265	1678.31
536.467	1321.96
536.668	1770.47
536.87	1500.14
537.071	2499.55
537.273	1895.4
537.474	2276.32
537.676	2309.08
537.877	1895.4
538.078	1457.13
538.28	1897.44
538.481	1655.78
538.683	2145.25
538.884	855.03
539.085	2722.77
539.287	1950.69
539.488	2323.42
539.689	1381.35
539.891	2323.42
540.092	1653.73
540.293	2018.27
540.495	1739.75
540.696	1616.87
540.897	1457.13
541.098	2155.49
541.3	2206.69
541.501	2468.83
541.702	2327.52
541.903	2472.92
542.104	2194.4
542.306	2036.7
542.507	1731.56
542.708	3365.84
542.909	1440.75
543.11	2917.33
543.311	818.16
543.512	1997.79
543.713	2391
543.915	2022.37
544.116	1924.07
544.317	2851.8
544.518	2030.56
544.719	2143.2
544.92	1565.67
545.121	1883.11
545.322	1666.02
545.523	2587.61
545.724	1889.25
545.925	1668.07
546.126	1836
546.327	3085.26
546.528	2190.3
546.729	2526.17
546.929	2069.47
547.13	2456.54
547.331	1444.84
547.532	2515.93
547.733	1639.4
547.934	2018.27
548.135	1879.01
548.336	2823.12
548.536	2569.18
548.737	3642.31
548.938	2243.55
549.139	2784.21
549.34	2083.81
549.54	3165.14
549.741	2063.33
549.942	1971.17
550.143	975.86
550.343	2335.71
550.544	2681.82
550.745	4037.57
550.945	2010.08
551.146	2077.66
551.347	1610.73
551.547	2145.25
551.748	1432.55
551.949	2427.87
552.149	1975.27
552.35	1643.49
552.551	1715.17
552.751	1526.76
552.952	1295.34
553.152	1745.89
553.353	1285.1
553.553	1987.55
553.754	1518.57
553.954	1774.56
554.155	1326.06
554.356	1901.54
554.556	1676.26
554.756	1743.85
554.957	1989.6
555.157	1469.42
555.358	1682.41
555.558	1829.86
555.759	1082.35
555.959	1551.34
556.159	1213.42
556.36	1625.06
556.56	1213.42
556.761	1840.1
556.961	1729.51
557.161	1858.53
557.362	1713.13
557.562	1934.31
557.762	1235.95
557.963	2608.09
558.163	1180.65
558.363	1676.26
558.563	1324.01
558.764	1444.84
558.964	1334.25
559.164	1287.15
559.364	1504.23
559.565	1442.79
559.765	1688.55
559.965	1262.57
560.165	1555.43
560.365	1831.91
560.565	1137.65
560.766	2517.98
560.966	1221.61
561.166	842.74
561.366	1518.57
561.566	1569.77
561.766	947.19
561.966	1420.27
562.166	1637.35
562.366	1817.57
562.566	1395.69
562.766	1338.35
562.966	904.18
563.166	1752.04
563.366	674.81
563.566	1473.51
563.766	1436.65
563.966	2851.8
564.166	1571.82
564.366	1647.59
564.566	1219.57
564.766	1926.11
564.966	771.06
565.166	1938.4
565.366	1104.88
565.565	1360.88
565.765	596.98
565.965	1100.78
566.165	611.32
566.365	1854.44
566.565	924.66
566.764	1385.45
566.964	961.52
567.164	1047.54
567.364	678.9
567.564	1151.98
567.763	465.91
567.963	435.19
568.163	1076.21
568.362	1369.07
568.562	590.84
568.762	1260.52
568.961	652.28
569.161	1135.6
569.361	152.57
569.56	1612.78
569.76	613.37
569.96	855.03
570.159	676.85
570.359	930.8
570.558	629.75
570.758	1076.21
570.958	443.39
571.157	1158.13
571.357	730.1
571.556	658.42
571.756	572.41
571.955	1111.02
572.155	431.1
572.354	1797.09
572.554	547.83
572.753	1037.3
572.953	1082.35
573.152	404.47
573.351	611.32
573.551	932.85
573.75	556.02
573.95	599.03
574.149	203.77
574.348	795.64
574.548	703.48
574.747	582.65
574.946	445.43
575.146	1078.26
575.345	330.75
575.544	803.83
575.744	377.85
575.943	619.51
576.142	654.33
576.342	719.86
576.541	752.63
576.74	674.81
576.939	535.54
577.138	363.51
577.338	515.06
577.537	719.86
577.736	508.92
577.935	488.44
578.134	193.53
578.333	818.16
578.533	433.15
578.732	676.85
578.931	312.32
579.13	1342.44
579.329	480.25
579.528	1600.49
579.727	609.27
579.926	478.2
580.125	674.81
580.324	400.38
580.523	353.27
580.722	390.14
580.921	457.72
581.12	470.01
581.319	177.15
581.518	427
581.717	232.44
581.916	214.01
582.115	228.35
582.314	398.33
582.513	187.39
582.712	560.12
582.911	113.66
583.109	558.07
583.308	150.53
583.507	525.3
583.706	181.25
583.905	371.71
584.104	478.2
584.302	240.64
584.501	138.24
584.7	269.31
584.899	250.88
585.098	281.6
585.296	144.38
585.495	459.77
585.694	334.84
585.892	173.05
586.091	246.78
586.29	287.74
586.488	138.24
586.687	457.72
586.886	123.9
587.084	523.26
587.283	191.49
587.482	365.56
587.68	449.53
587.879	607.22
588.077	150.53
588.276	281.6
588.475	322.56
588.673	365.56
588.872	455.67
589.07	410.62
589.269	424.95
589.467	513.02
589.666	338.94
589.864	513.02
590.063	390.14
590.261	513.02
590.46	394.23
590.658	623.61
590.857	230.4
591.055	709.62
591.253	412.67
591.452	619.51
591.65	201.72
591.848	338.94
592.047	242.68
592.245	437.24
592.444	205.82
592.642	306.17
592.84	386.04
593.038	377.85
593.237	562.17
593.435	705.53
593.633	519.16
593.832	445.43
594.03	678.9
594.228	494.58
594.426	427
594.624	308.22
594.823	140.29
595.021	502.78
595.219	334.84
595.417	527.35
595.615	359.42
595.813	322.56
596.012	238.59
596.21	381.95
596.408	269.31
596.606	275.45
596.804	328.7
597.002	422.91
597.2	246.78
597.398	644.09
597.596	117.76
597.794	730.1
597.992	275.45
598.19	508.92
598.388	252.92
598.586	515.06
598.784	211.96
598.982	470.01
599.18	355.32
599.378	375.8
599.576	257.02
599.774	613.37
599.972	519.16
600.17	642.04
600.368	461.82
600.565	857.07
600.763	367.61
600.961	220.16
601.159	717.81
601.357	355.32
601.555	666.61
601.752	805.88
601.95	742.39
602.148	402.43
602.346	1203.18
602.544	1207.28
602.741	832.5
602.939	1330.16
603.137	756.72
603.334	1303.53
603.532	551.93
603.73	1772.52
603.927	818.16
604.125	1090.54
604.323	596.98
604.52	1577.96
604.718	699.38
604.916	1420.27
605.113	635.89
605.311	1209.33
605.508	574.46
605.706	928.75
605.904	582.65
606.101	685.05
606.299	463.86
606.496	549.88
606.694	447.48
606.891	715.77
607.089	363.51
607.286	809.97
607.484	494.58
607.681	451.58
607.879	711.67
608.076	615.41
608.273	334.84
608.471	766.96
608.668	596.98
608.866	609.27
609.063	635.89
609.26	674.81
609.458	480.25
609.655	609.27
609.852	400.38
610.05	783.35
610.247	467.96
610.444	578.55
610.642	539.64
610.839	455.67
611.036	535.54
611.233	427
611.431	539.64
611.628	461.82
611.825	543.74
612.022	416.76
612.22	359.42
612.417	441.34
612.614	304.12
612.811	361.47
613.008	392.19
613.205	263.16
613.402	381.95
613.6	674.81
613.797	285.69
613.994	496.63
614.191	220.16
614.388	502.78
614.585	203.77
614.782	545.78
614.979	58.37
615.176	408.57
615.373	72.7
615.57	316.41
615.767	50.18
615.964	222.2
616.161	89.09
616.358	336.89
616.555	50.18
616.752	175.1
616.949	189.44
617.146	314.36
617.343	209.92
617.539	203.77
617.736	193.53
617.933	158.72
618.13	173.05
618.327	345.08
618.524	230.4
618.721	191.49
618.917	130.05
619.114	383.99
619.311	144.38
619.508	334.84
619.704	148.48
619.901	254.97
620.098	123.9
620.295	226.3
620.491	97.28
620.688	76.8
620.885	123.9
621.081	351.23
621.278	113.66
621.475	275.45
621.671	232.44
621.868	240.64
622.065	248.83
622.261	257.02
622.458	76.8
622.655	97.28
622.851	99.33
623.048	160.77
623.244	150.53
623.441	78.85
623.637	232.44
623.834	193.53
624.03	209.92
624.227	209.92
624.423	103.42
624.62	195.58
624.816	91.13
625.013	119.81
625.209	19.46
625.406	295.93
625.602	54.27
625.798	41.98
625.995	150.53
626.191	117.76
626.388	103.42
626.584	164.86
626.78	144.38
626.977	74.75
627.173	13.31
627.369	168.96
627.566	37.89
627.762	84.99
627.958	84.99
628.154	97.28
628.351	183.29
628.547	148.48
628.743	62.46
628.939	128
629.136	7.17
629.332	125.95
629.528	121.85
629.724	-13.31
629.92	95.23
630.116	117.76
630.313	97.28
630.509	64.51
630.705	44.03
630.901	97.28
631.097	91.13
631.293	97.28
631.489	50.18
631.685	107.52
631.881	62.46
632.077	70.65
632.273	121.85
632.469	173.05
632.665	58.37
632.861	125.95
633.057	56.32
633.253	60.42
633.449	21.5
633.645	107.52
633.841	148.48
634.037	107.52
634.233	101.37
634.429	58.37
634.625	95.23
634.821	44.03
635.017	99.33
635.212	95.23
635.408	25.6
635.604	177.15
635.8	46.08
635.996	128
636.191	128
636.387	46.08
636.583	130.05
636.779	-7.17
636.975	105.47
637.17	50.18
637.366	154.62
637.562	46.08
637.757	95.23
637.953	146.43
638.149	66.56
638.345	91.13
638.54	-5.12
638.736	222.2
638.931	11.26
639.127	109.57
639.323	13.31
639.518	95.23
639.714	-41.98
639.909	134.14
640.105	93.18
640.301	48.13
640.496	62.46
640.692	-3.07
640.887	-130.05
641.083	101.37
641.278	76.8
641.474	160.77
641.669	105.47
641.865	119.81
642.06	19.46
642.256	91.13
642.451	93.18
642.646	37.89
642.842	82.94
643.037	103.42
643.233	5.12
643.428	70.65
643.623	29.7
643.819	46.08
644.014	119.81
644.209	29.7
644.405	60.42
644.6	41.98
644.795	50.18
644.99	35.84
645.186	93.18
645.381	-1.02
645.576	111.61
645.771	48.13
645.967	-5.12
646.162	123.9
646.357	-78.85
646.552	58.37
646.747	-37.89
646.943	66.56
647.138	41.98
647.333	74.75
647.528	-11.26
647.723	125.95
647.918	-76.8
648.113	152.57
648.308	80.89
648.504	91.13
648.699	11.26
648.894	46.08
649.089	-3.07
649.284	62.46
649.479	103.42
649.674	97.28
649.869	140.29
650.064	138.24
650.259	25.6
650.454	72.7
650.649	66.56
650.844	-70.65
651.038	29.7
651.233	-19.46
651.428	-23.55
651.623	103.42
651.818	-76.8
652.013	23.55
652.208	35.84
652.403	-37.89
652.597	80.89
652.792	58.37
652.987	11.26
653.182	97.28
653.377	68.61
653.571	74.75
653.766	-25.6
653.961	15.36
654.156	17.41
654.35	29.7
654.545	119.81
654.74	109.57
654.935	175.1
655.129	64.51
655.324	74.75
655.519	152.57
655.713	21.5
655.908	-68.61
656.102	-23.55
656.297	56.32
656.492	103.42
656.686	-7.17
656.881	121.85
657.075	-13.31
657.27	37.89
657.464	31.74
657.659	35.84
657.854	3.07
658.048	-13.31
658.243	37.89
658.437	-21.5
658.631	44.03
658.826	84.99
659.02	48.13
659.215	7.17
659.409	31.74
659.604	7.17
659.798	1.02
659.992	105.47
660.187	134.14
660.381	56.32
660.576	27.65
660.77	-11.26
660.964	-39.94
661.159	-5.12
661.353	17.41
661.547	60.42
661.742	101.37
661.936	68.61
662.13	5.12
662.324	50.18
662.519	29.7
662.713	117.76
662.907	19.46
663.101	33.79
663.295	27.65
663.49	-15.36
663.684	70.65
663.878	11.26
664.072	17.41
664.266	-35.84
664.46	-84.99
664.654	-64.51
664.849	66.56
665.043	41.98
665.237	62.46
665.431	-9.22
665.625	41.98
665.819	62.46
666.013	13.31
666.207	-74.75
666.401	113.66
666.595	11.26
666.789	134.14
666.983	-76.8
667.177	11.26
667.371	70.65
667.565	-35.84
667.759	-27.65
667.953	11.26
668.147	103.42
668.34	-29.7
668.534	-52.22
668.728	52.22
668.922	21.5
669.116	-72.7
669.31	1.02
669.504	58.37
669.697	54.27
669.891	41.98
670.085	-50.18
670.279	113.66
670.473	25.6
670.666	33.79
670.86	-5.12
671.054	17.41
671.248	11.26
671.441	-19.46
671.635	-23.55
671.829	-37.89
672.022	15.36
672.216	64.51
672.41	3.07
672.603	52.22
672.797	17.41
672.99	87.04
673.184	-9.22
673.378	35.84
673.571	21.5
673.765	84.99
673.958	48.13
674.152	84.99
674.345	-7.17
674.539	9.22
674.733	-15.36
674.926	-23.55
675.12	-105.47
675.313	-17.41
675.506	54.27
675.7	-25.6
675.893	-27.65
676.087	99.33
676.28	17.41
676.474	-23.55
676.667	-21.5
676.86	-39.94
677.054	-119.81
677.247	-3.07
677.441	111.61
677.634	-9.22
677.827	37.89
678.02	113.66
678.214	-29.7
678.407	1.02
678.6	33.79
678.794	56.32
678.987	-27.65
679.18	23.55
679.373	-56.32
679.567	105.47
679.76	93.18
679.953	-23.55
680.146	-5.12
680.339	64.51
680.533	11.26
680.726	-27.65
680.919	-1.02
681.112	37.89
681.305	64.51
681.498	60.42
681.691	29.7
681.884	-95.23
682.077	-60.42
682.271	72.7
682.464	1.02
682.657	60.42
682.85	70.65
683.043	15.36
683.236	132.09
683.429	162.81
683.622	87.04
683.815	48.13
684.008	31.74
684.201	-44.03
684.393	-1.02
684.586	33.79
684.779	39.94
684.972	33.79
685.165	107.52
685.358	78.85
685.551	56.32
685.744	23.55
685.937	87.04
686.129	37.89
686.322	156.67
686.515	-82.94
686.708	54.27
686.901	80.89
687.093	103.42
687.286	84.99
687.479	-62.46
687.672	-78.85
687.864	13.31
688.057	54.27
688.25	66.56
688.442	84.99
688.635	-48.13
688.828	-11.26
689.02	-3.07
689.213	91.13
689.406	-54.27
689.598	41.98
689.791	7.17
689.984	-99.33
690.176	52.22
690.369	58.37
690.561	44.03
690.754	48.13
690.946	64.51
691.139	39.94
691.331	21.5
691.524	60.42
691.716	27.65
691.909	11.26
692.101	56.32
692.294	64.51
692.486	5.12
692.679	-5.12
692.871	78.85
693.063	9.22
693.256	70.65
693.448	11.26
693.641	15.36
693.833	115.71
694.025	113.66
694.218	101.37
694.41	138.24
694.602	1973.22
694.795	11529.04
694.987	21177.02
695.179	30982.7
695.372	25193.09
695.564	17224.44
695.756	13933.36
695.948	8418.18
696.14	5319.6
696.333	2012.13
696.525	1049.58
696.717	113.66
696.909	35.84
697.101	132.09
697.294	31.74
697.486	50.18
697.678	-9.22
697.87	1.02
698.062	25.6
698.254	-31.74
698.446	50.18
698.638	50.18
698.83	17.41
699.022	66.56
699.215	-48.13
699.407	9.22
699.599	-60.42
699.791	68.61
699.983	-21.5
700.175	103.42
700.367	11.26
700.558	132.09
700.75	-54.27
700.942	21.5
701.134	29.7
701.326	66.56
701.518	50.18
701.71	21.5
701.902	-89.09
702.094	-3.07
702.286	-95.23
702.477	-15.36
702.669	-1.02
702.861	56.32
703.053	82.94
703.245	1.02
703.436	25.6
703.628	56.32
703.82	-39.94
704.012	48.13
704.203	52.22
704.395	62.46
704.587	447.48
704.779	1422.31
704.97	9417.58
705.162	22094.51
705.354	25428.6
705.545	21310.14
705.737	17437.43
705.929	11438.93
706.12	8717.18
706.312	4156.35
706.503	2444.25
706.695	586.74
706.887	283.64
707.078	105.47
707.27	93.18
707.461	144.38
707.653	29.7
707.844	119.81
708.036	111.61
708.227	46.08
708.419	54.27
708.61	101.37
708.802	37.89
708.993	70.65
709.185	15.36
709.376	27.65
709.567	25.6
709.759	128
709.95	17.41
710.141	31.74
710.333	-5.12
710.524	35.84
710.716	-37.89
710.907	115.71
711.098	15.36
711.289	-46.08
711.481	82.94
711.672	48.13
711.863	105.47
712.055	78.85
712.246	-31.74
712.437	-37.89
712.628	-56.32
712.82	-1.02
713.011	107.52
713.202	95.23
713.393	117.76
713.584	177.15
713.775	48.13
713.967	183.29
714.158	-19.46
714.349	93.18
714.54	9.22
714.731	33.79
714.922	23.55
715.113	-72.7
715.304	-9.22
715.495	-13.31
715.686	-41.98
715.877	-41.98
716.068	95.23
716.259	-35.84
716.45	103.42
716.641	-21.5
716.832	48.13
717.023	70.65
717.214	-17.41
717.405	-37.89
717.596	66.56
717.787	54.27
717.978	13.31
718.169	-25.6
718.36	-35.84
718.55	29.7
718.741	-29.7
718.932	70.65
719.123	64.51
719.314	95.23
719.505	105.47
719.695	35.84
719.886	25.6
720.077	25.6
720.268	-80.89
720.458	-52.22
720.649	46.08
720.84	82.94
721.031	-3.07
721.221	5.12
721.412	-31.74
721.603	-25.6
721.793	-80.89
721.984	78.85
722.175	-31.74
722.365	105.47
722.556	-52.22
722.746	1.02
722.937	56.32
723.128	-17.41
723.318	31.74
723.509	19.46
723.699	64.51
723.89	91.13
724.08	-23.55
724.271	21.5
724.461	-37.89
724.652	64.51
724.842	-27.65
725.033	-23.55
725.223	-29.7
725.414	48.13
725.604	-5.12
725.794	588.79
725.985	2538.46
726.175	1010.67
726.366	814.07
726.556	74.75
726.746	-3.07
726.937	44.03
727.127	15.36
727.317	-128
727.508	-54.27
727.698	-19.46
727.888	9.22
728.079	46.08
728.269	5.12
728.459	121.85
728.649	39.94
728.84	27.65
729.03	-1.02
729.22	-41.98
729.41	1.02
729.6	44.03
729.791	62.46
729.981	-62.46
730.171	54.27
730.361	76.8
730.551	46.08
730.741	3.07
730.931	25.6
731.121	72.7
731.311	1.02
731.502	-23.55
731.692	-1.02
731.882	31.74
732.072	54.27
732.262	76.8
732.452	5.12
732.642	111.61
732.832	-17.41
733.022	54.27
733.212	62.46
733.402	121.85
733.591	1.02
733.781	19.46
733.971	17.41
734.161	13.31
734.351	7.17
734.541	89.09
734.731	-62.46
734.921	13.31
735.111	87.04
735.3	-48.13
735.49	21.5
735.68	72.7
735.87	158.72
736.06	113.66
736.249	1659.88
736.439	3490.76
736.629	13740.85
736.819	26509.93
737.008	39643.56
737.198	41036.17
737.388	28918.34
737.577	23237.28
737.767	18193.13
737.957	11832.14
738.146	8926.07
738.336	3886.02
738.526	2167.77
738.715	760.82
738.905	115.71
739.094	138.24
739.284	136.19
739.474	97.28
739.663	76.8
739.853	113.66
740.042	-23.55
740.232	-19.46
740.421	179.2
740.611	-33.79
740.8	-48.13
740.99	78.85
741.179	-64.51
741.369	-11.26
741.558	50.18
741.748	97.28
741.937	-93.18
742.126	31.74
742.316	25.6
742.505	-44.03
742.695	-29.7
742.884	44.03
743.073	11.26
743.263	-93.18
743.452	99.33
743.641	-5.12
743.831	-17.41
744.02	-91.13
744.209	152.57
744.398	-1.02
744.588	50.18
744.777	-15.36
744.966	31.74
745.155	91.13
745.345	-56.32
745.534	-5.12
745.723	25.6
745.912	35.84
746.101	-68.61
746.29	35.84
746.48	25.6
746.669	9.22
746.858	-134.14
747.047	-23.55
747.236	21.5
747.425	197.63
747.614	-1.02
747.803	3.07
747.992	121.85
748.181	-29.7
748.37	402.43
748.559	1616.87
748.748	9048.95
748.937	18440.93
749.126	26374.77
749.315	28125.78
749.504	27544.16
749.693	25596.54
749.882	32348.69
750.071	39391.65
750.26	41357.7
750.449	36528.59
750.638	30794.28
750.826	21527.22
751.015	17750.77
751.204	11746.12
751.393	7918.47
751.582	4064.19
751.771	2538.46
751.959	427
752.148	408.57
752.337	111.61
752.526	66.56
752.714	-5.12
752.903	-29.7
753.092	150.53
753.281	-66.56
753.469	74.75
753.658	-44.03
753.847	132.09
754.035	119.81
754.224	-46.08
754.413	76.8
754.601	-11.26
754.79	68.61
754.979	78.85
755.167	35.84
755.356	23.55
755.544	76.8
755.733	27.65
755.921	101.37
756.11	7.17
756.298	-101.37
756.487	68.61
756.675	60.42
756.864	31.74
757.052	44.03
757.241	68.61
757.429	-37.89
757.618	-15.36
757.806	35.84
757.995	60.42
758.183	68.61
758.371	-1.02
758.56	-87.04
758.748	-27.65
758.937	39.94
759.125	148.48
759.313	46.08
759.502	11.26
759.69	13.31
759.878	52.22
760.066	-146.43
760.255	-3.07
760.443	-60.42
760.631	109.57
760.819	132.09
761.008	189.44
761.196	510.97
761.384	2003.94
761.572	7482.25
761.761	15477.52
761.949	34494.96
762.137	60461.16
762.325	64372.78
762.513	64415.79
762.701	63275.07
762.889	47429.93
763.077	37437.89
763.266	28494.41
763.454	20783.81
763.642	13478.71
763.83	9556.85
764.018	5094.32
764.206	3042.26
764.394	1272.81
764.582	609.27
764.77	179.2
764.958	308.22
765.146	91.13
765.334	171.01
765.522	76.8
765.71	19.46
765.898	76.8
766.085	11.26
766.273	-1.02
766.461	-68.61
766.649	-41.98
766.837	-37.89
767.025	158.72
767.213	23.55
767.401	41.98
767.588	56.32
767.776	-3.07
767.964	19.46
768.152	50.18
768.339	-74.75
768.527	101.37
768.715	105.47
768.903	109.57
769.09	13.31
769.278	70.65
769.466	15.36
769.654	29.7
769.841	-103.42
770.029	99.33
770.217	-54.27
770.404	3.07
770.592	689.14
770.779	5122.99
770.967	16075.53
771.155	28406.35
771.342	34591.22
771.53	25471.61
771.717	20828.87
771.905	15389.46
772.092	10146.66
772.28	6402.97
772.467	4541.37
772.655	734.2
772.842	185.34
773.03	236.54
773.217	66.56
773.405	76.8
773.592	21.5
773.78	138.24
773.967	125.95
774.154	-9.22
774.342	93.18
774.529	-11.26
774.717	-80.89
774.904	-3.07
775.091	48.13
775.279	125.95
775.466	-62.46
775.653	-1.02
775.841	-74.75
776.028	-11.26
776.215	37.89
776.402	80.89
776.59	-25.6
776.777	-11.26
776.964	-37.89
777.151	37.89
777.338	-33.79
777.526	-105.47
777.713	-5.12
777.9	15.36
778.087	-91.13
778.274	46.08
778.461	11.26
778.649	15.36
778.836	44.03
779.023	117.76
779.21	39.94
779.397	11.26
779.584	-54.27
779.771	31.74
779.958	11.26
780.145	66.56
780.332	3.07
780.519	21.5
780.706	33.79
780.893	21.5
781.08	-29.7
781.267	41.98
781.454	23.55
781.641	25.6
781.828	-29.7
782.015	121.85
782.202	25.6
782.388	-23.55
782.575	-27.65
782.762	39.94
782.949	37.89
783.136	48.13
783.323	87.04
783.509	23.55
783.696	37.89
783.883	50.18
784.07	21.5
784.257	93.18
784.443	19.46
784.63	13.31
784.817	80.89
785.004	-9.22
785.19	-58.37
785.377	-50.18
785.564	-52.22
785.75	1.02
785.937	35.84
786.124	-19.46
786.31	50.18
786.497	-27.65
786.683	23.55
786.87	-87.04
787.057	-48.13
787.243	15.36
787.43	60.42
787.616	91.13
787.803	-39.94
787.989	87.04
788.176	56.32
788.362	35.84
788.549	-46.08
788.735	44.03
788.922	-27.65
789.108	52.22
789.295	-25.6
789.481	99.33
789.668	37.89
789.854	23.55
790.04	15.36
790.227	84.99
790.413	-23.55
790.599	95.23
790.786	-52.22
790.972	23.55
791.158	-11.26
791.345	111.61
791.531	-19.46
791.717	66.56
791.904	52.22
792.09	21.5
792.276	82.94
792.462	-39.94
792.649	46.08
792.835	72.7
793.021	19.46
793.207	35.84
793.393	3660.74
793.58	12862.27
793.766	22127.28
793.952	20947.65
794.138	18408.17
794.324	13589.3
794.51	8766.33
794.696	4879.29
794.882	3171.28
795.069	719.86
795.255	269.31
795.441	87.04
795.627	-19.46
795.813	82.94
795.999	105.47
796.185	-13.31
796.371	-23.55
796.557	-21.5
796.743	95.23
796.929	39.94
797.115	-33.79
797.3	-3.07
797.486	56.32
797.672	-134.14
797.858	87.04
798.044	-11.26
798.23	29.7
798.416	82.94
798.602	-17.41
798.788	35.84
798.973	-19.46
799.159	-1.02
799.345	2120.67
799.531	5112.75
799.717	8289.15
799.902	10670.94
800.088	13818.67
800.274	18596.58
800.46	28572.24
800.645	28928.58
800.831	21213.88
801.017	13523.76
801.202	11031.38
801.388	6691.74
801.574	3470.28
801.759	832.5
801.945	668.66
802.131	218.11
802.316	103.42
802.502	9.22
802.687	33.79
802.873	44.03
803.058	-25.6
803.244	23.55
803.43	-37.89
803.615	41.98
803.801	-52.22
803.986	41.98
804.172	-29.7
804.357	-5.12
804.543	35.84
804.728	89.09
804.913	152.57
805.099	-7.17
805.284	-80.89
805.47	17.41
805.655	46.08
805.84	-66.56
806.026	-3.07
806.211	-23.55
806.397	31.74
806.582	-25.6
806.767	-56.32
806.953	89.09
807.138	60.42
807.323	-56.32
807.508	103.42
807.694	13.31
807.879	-7.17
808.064	13.31
808.249	46.08
808.435	162.81
808.62	678.9
808.805	1795.04
808.99	7850.89
809.175	16126.73
809.361	25864.82
809.546	31320.61
809.731	36194.78
809.916	32977.42
810.101	32631.31
810.286	42436.98
810.471	58085.51
810.656	61446.23
810.841	56891.55
811.026	56314.02
811.211	48869.65
811.396	36524.5
811.581	29194.82
811.766	23458.46
811.951	17851.12
812.136	11424.59
812.321	8598.4
812.506	5907.37
812.691	3210.19
812.876	914.42
813.061	744.44
813.246	269.31
813.431	109.57
813.616	50.18
813.801	11.26
813.986	84.99
814.17	25.6
814.355	-58.37
814.54	31.74
814.725	5.12
814.91	-17.41
815.094	58.37
815.279	-5.12
815.464	13.31
815.649	-138.24
815.833	27.65
816.018	39.94
816.203	175.1
816.388	-87.04
816.572	15.36
816.757	-1.02
816.942	-72.7
817.126	-15.36
817.311	113.66
817.496	-103.42
817.68	70.65
817.865	11.26
818.049	-33.79
818.234	33.79
818.419	46.08
818.603	13.31
818.788	-33.79
818.972	-17.41
819.157	144.38
819.341	1.02
819.526	25.6
819.71	-3.07
819.895	-13.31
820.079	58.37
820.264	72.7
820.448	5.12
820.633	19.46
820.817	103.42
821.001	13.31
821.186	-9.22
821.37	33.79
821.554	21.5
821.739	-29.7
821.923	-119.81
822.108	82.94
822.292	68.61
822.476	125.95
822.66	54.27
822.845	160.77
823.029	-27.65
823.213	121.85
823.398	111.61
823.582	150.53
823.766	-66.56
823.95	11.26
824.134	-44.03
824.319	-27.65
824.503	-11.26
824.687	119.81
824.871	113.66
825.055	109.57
825.239	44.03
825.423	463.86
825.608	5450.67
825.792	7189.39
825.976	7779.21
826.16	6517.66
826.344	4307.9
826.528	785.4
826.712	447.48
826.896	87.04
827.08	17.41
827.264	-11.26
827.448	-64.51
827.632	-56.32
827.816	-31.74
828	97.28
828.184	68.61
828.368	37.89
828.552	11.26
828.736	-44.03
828.919	-21.5
829.103	44.03
829.287	101.37
829.471	21.5
829.655	13.31
829.839	44.03
830.023	109.57
830.206	5.12
830.39	25.6
830.574	-37.89
830.758	3.07
830.941	99.33
831.125	-39.94
831.309	91.13
831.493	-5.12
831.676	-9.22
831.86	-84.99
832.044	66.56
832.227	31.74
832.411	-17.41
832.595	3.07
832.778	60.42
832.962	62.46
833.146	21.5
833.329	5.12
833.513	78.85
833.696	-50.18
833.88	5.12
834.064	-1.02
834.247	107.52
834.431	5.12
834.614	52.22
834.798	-60.42
834.981	5.12
835.165	7.17
835.348	62.46
835.532	78.85
835.715	99.33
835.898	-31.74
836.082	35.84
836.265	-89.09
836.449	58.37
836.632	21.5
836.815	11.26
836.999	-33.79
837.182	-39.94
837.365	-37.89
837.549	21.5
837.732	7.17
837.915	1.02
838.099	39.94
838.282	48.13
838.465	-19.46
838.648	-15.36
838.832	-58.37
839.015	13.31
839.198	44.03
839.381	31.74
839.565	-35.84
839.748	314.36
839.931	4707.26
840.114	11541.33
840.297	17081.08
840.48	14957.34
840.663	13787.95
840.847	11504.46
841.03	8795
841.213	5452.72
841.396	7025.56
841.579	9562.99
841.762	15221.53
841.945	18606.82
842.128	19364.57
842.311	16605.95
842.494	11737.93
842.677	6087.59
842.86	3759.05
843.043	1842.15
843.226	836.6
843.409	144.38
843.592	66.56
843.775	41.98
843.958	23.55
844.141	128
844.323	41.98
844.506	-29.7
844.689	-25.6
844.872	60.42
845.055	41.98
845.238	-1.02
845.42	50.18
845.603	11.26
845.786	-11.26
845.969	27.65
846.152	140.29
846.334	58.37
846.517	5.12
846.7	-54.27
846.883	-13.31
847.065	-101.37
847.248	-72.7
847.431	-103.42
847.613	-41.98
847.796	87.04
847.979	25.6
848.161	60.42
848.344	3.07
848.526	27.65
848.709	-123.9
848.892	54.27
849.074	-13.31
849.257	-39.94
849.439	76.8
849.622	52.22
849.804	-5.12
849.987	-46.08
850.169	27.65
850.352	39.94
850.534	-35.84
850.717	39.94
850.899	72.7
851.082	13.31
851.264	21.5
851.446	29.7
851.629	381.95
851.811	1801.19
851.994	1172.46
852.176	289.79
852.358	33.79
852.541	17.41
852.723	-64.51
852.905	1.02
853.088	-89.09
853.27	46.08
853.452	-1.02
853.635	3.07
853.817	-58.37
853.999	7.17
854.181	66.56
854.363	119.81
854.546	50.18
854.728	46.08
854.91	95.23
855.092	74.75
855.274	17.41
855.457	-39.94
855.639	-13.31
855.821	15.36
856.003	64.51
856.185	-76.8
856.367	-35.84
856.549	111.61
856.731	33.79
856.913	33.79
857.095	68.61
857.277	52.22
857.459	138.24
857.641	72.7
857.823	-68.61
858.005	50.18
858.187	66.56
858.369	1.02
858.551	-17.41
858.733	5.12
858.915	25.6
859.097	46.08
859.279	-17.41
859.461	138.24
859.643	-7.17
859.824	-11.26
860.006	62.46
860.188	23.55
860.37	54.27
860.552	-78.85
860.734	54.27
860.915	5.12
861.097	21.5
861.279	125.95
861.461	107.52
861.642	25.6
861.824	-50.18
862.006	-50.18
862.188	54.27
862.369	113.66
862.551	-84.99
862.733	-29.7
862.914	-27.65
863.096	-5.12
863.278	-29.7
863.459	-7.17
863.641	13.31
863.822	19.46
864.004	-17.41
864.185	46.08
864.367	-11.26
864.549	62.46
864.73	46.08
864.912	-3.07
865.093	91.13
865.275	31.74
865.456	-31.74
865.638	48.13
865.819	35.84
866.001	-13.31
866.182	-74.75
866.363	11.26
866.545	-19.46
866.726	7.17
866.908	105.47
867.089	-27.65
867.27	74.75
867.452	128
867.633	-19.46
867.814	44.03
867.996	29.7
868.177	50.18
868.358	11.26
868.54	-21.5
868.721	-66.56
868.902	97.28
869.083	58.37
869.265	48.13
869.446	29.7
869.627	-5.12
869.808	-25.6
869.989	-11.26
870.171	11.26
870.352	-3.07
870.533	-13.31
870.714	66.56
870.895	44.03
871.076	99.33
871.257	-60.42
871.438	-64.51
871.619	-50.18
871.801	35.84
871.982	70.65
872.163	3.07
872.344	-25.6
872.525	21.5
872.706	-48.13
872.887	76.8
873.068	-9.22
873.249	78.85
873.43	-19.46
873.61	78.85
873.791	70.65
873.972	-9.22
874.153	-33.79
874.334	66.56
874.515	64.51
874.696	-5.12
874.877	7.17
875.058	-37.89
875.238	-11.26
875.419	41.98
875.6	-70.65
875.781	64.51
875.962	50.18
876.142	9.22
876.323	-46.08
876.504	64.51
876.685	9.22
876.865	-35.84
877.046	25.6
877.227	-44.03
877.407	25.6
877.588	41.98
877.769	66.56
877.949	23.55
878.13	-62.46
878.311	123.9
878.491	15.36
878.672	103.42
878.853	-74.75
879.033	19.46
879.214	52.22
879.394	29.7
879.575	-89.09
879.755	23.55
879.936	13.31
880.116	-35.84
880.297	-95.23
880.477	54.27
880.658	50.18
880.838	-41.98
881.019	-27.65
881.199	11.26
881.38	-25.6
881.56	56.32
881.74	33.79
881.921	31.74
882.101	27.65
882.281	7.17
882.462	144.38
882.642	-41.98
882.822	68.61
883.003	-66.56
883.183	54.27
883.363	-5.12
883.544	37.89
883.724	21.5
883.904	107.52
884.084	-39.94
884.265	101.37
884.445	-19.46
884.625	-58.37
884.805	-15.36
884.985	-1.02
885.166	-9.22
885.346	76.8
885.526	-39.94
885.706	13.31
885.886	-23.55
886.066	-7.17
886.246	78.85
886.426	48.13
886.606	31.74
886.787	-46.08
886.967	7.17
887.147	15.36
887.327	21.5
887.507	-33.79
887.687	99.33
887.867	91.13
888.047	-23.55
888.227	-35.84
888.406	64.51
888.586	56.32
888.766	-37.89
888.946	-113.66
889.126	48.13
889.306	-3.07
889.486	74.75
889.666	60.42
889.846	64.51
890.025	25.6
890.205	-54.27
890.385	105.47
890.565	68.61
890.745	46.08
890.924	15.36
891.104	-84.99
891.284	56.32
891.464	121.85
891.643	48.13
891.823	-46.08
892.003	113.66
892.183	-5.12
892.362	-89.09
892.542	66.56
892.722	17.41
892.901	-9.22
893.081	31.74
893.26	31.74
893.44	-48.13
893.62	62.46
893.799	-9.22
893.979	31.74
894.158	25.6
894.338	60.42
894.517	-35.84
894.697	1.02
894.877	72.7
895.056	25.6
895.236	-60.42
895.415	15.36
895.594	109.57
895.774	11.26
895.953	103.42
896.133	72.7
896.312	1.02
896.492	17.41
896.671	11.26
896.85	3.07
897.03	-13.31
897.209	76.8
897.388	-5.12
897.568	-21.5
897.747	1.02
897.926	13.31
898.106	-15.36
898.285	44.03
898.464	66.56
898.643	35.84
898.823	25.6
899.002	-5.12
899.181	119.81
899.36	84.99
899.54	-19.46
899.719	13.31
899.898	54.27
900.077	39.94
900.256	-44.03
900.435	-39.94
900.614	87.04
900.794	-3.07
900.973	60.42
901.152	-11.26
901.331	17.41
901.51	-21.5
901.689	21.5
901.868	56.32
902.047	33.79
902.226	41.98
902.405	-25.6
902.584	-7.17
902.763	25.6
902.942	31.74
903.121	-44.03
903.3	-113.66
903.479	68.61
903.658	-29.7
903.837	37.89
904.015	123.9
904.194	50.18
904.373	-1.02
904.552	44.03
904.731	48.13
904.91	17.41
905.089	19.46
905.267	50.18
905.446	-44.03
905.625	48.13
905.804	37.89
905.982	48.13
906.161	33.79
906.34	-1.02
906.519	5.12
906.697	-25.6
906.876	-62.46
907.055	-62.46
907.233	66.56
907.412	95.23
907.591	-70.65
907.769	113.66
907.948	91.13
908.127	52.22
908.305	66.56
908.484	-52.22
908.662	52.22
908.841	-13.31
909.019	27.65
909.198	33.79
909.377	-11.26
909.555	-31.74
909.734	15.36
909.912	37.89
910.09	3.07
910.269	35.84
910.447	-5.12
910.626	-27.65
910.804	-50.18
910.983	11.26
911.161	-7.17
911.339	9.22
911.518	29.7
911.696	17.41
911.875	37.89
912.053	35.84
912.231	-25.6
912.41	7.17
912.588	7.17
912.766	-91.13
912.944	21.5
913.123	1295.34
913.301	3023.83
913.479	570.36
913.657	97.28
913.836	19.46
914.014	15.36
914.192	-3.07
914.37	-27.65
914.548	154.62
914.727	52.22
914.905	76.8
915.083	-13.31
915.261	52.22
915.439	35.84
915.617	66.56
915.795	-68.61
915.973	17.41
916.151	35.84
916.329	48.13
916.508	-89.09
916.686	15.36
916.864	80.89
917.042	150.53
917.22	-41.98
917.398	37.89
917.575	-19.46
917.753	35.84
917.931	5.12
918.109	50.18
918.287	111.61
918.465	-7.17
918.643	-72.7
918.821	58.37
918.999	-62.46
919.177	136.19
919.354	-48.13
919.532	78.85
919.71	62.46
919.888	-15.36
920.066	-48.13
920.243	-3.07
920.421	15.36
920.599	162.81
920.777	50.18
920.954	50.18
921.132	3.07
921.31	-44.03
921.488	44.03
921.665	1.02
921.843	5.12
922.021	72.7
922.198	-5.12
922.376	-48.13
922.553	23.55
922.731	56.32
922.909	13.31
923.086	-109.57
923.264	-31.74
923.441	-64.51
923.619	-72.7
923.796	44.03
923.974	-17.41
924.152	-54.27
924.329	-33.79
924.507	91.13
924.684	-72.7
924.861	-9.22
925.039	72.7
925.216	-27.65
925.394	-101.37
925.571	-9.22
925.749	62.46
925.926	27.65
926.103	-13.31
926.281	-13.31
926.458	41.98
926.635	111.61
926.813	-15.36
926.99	66.56
927.167	56.32
927.345	76.8
927.522	11.26
927.699	35.84
927.876	62.46
928.054	52.22
928.231	78.85
928.408	68.61
928.585	97.28
928.763	52.22
928.94	-130.05
929.117	37.89
929.294	33.79
929.471	-52.22
929.648	-15.36
929.825	25.6
930.003	95.23
930.18	-99.33
930.357	93.18
930.534	-64.51
930.711	21.5
930.888	56.32
931.065	93.18
931.242	58.37
931.419	41.98
931.596	134.14
931.773	11.26
931.95	5.12
932.127	37.89
932.304	-84.99
932.481	93.18
932.658	78.85
932.835	1.02
933.011	23.55
933.188	-23.55
933.365	17.41
933.542	54.27
933.719	-76.8
933.896	-23.55
934.073	84.99
934.249	-66.56
934.426	-41.98
934.603	-25.6
934.78	-27.65
934.957	-19.46
935.133	39.94
935.31	46.08
935.487	-87.04
935.664	-5.12
935.84	54.27
936.017	-48.13
936.194	46.08
936.37	35.84
936.547	-44.03
936.724	-9.22
936.9	7.17
937.077	19.46
937.253	119.81
937.43	-15.36
937.607	-19.46
937.783	-23.55
937.96	37.89
938.136	46.08
938.313	72.7
938.489	-25.6
938.666	58.37
938.842	29.7
939.019	1.02
939.195	-74.75
939.372	140.29
939.548	-113.66
939.725	-15.36
939.901	-25.6
940.077	-13.31
940.254	121.85
940.43	-89.09
940.607	115.71
940.783	84.99
940.959	132.09
941.136	76.8
941.312	33.79
941.488	29.7
941.665	9.22
941.841	134.14
942.017	-52.22
942.193	27.65
942.37	44.03
942.546	17.41
942.722	-62.46
942.898	87.04
943.074	23.55
943.251	-134.14
943.427	-19.46
943.603	64.51
943.779	-44.03
943.955	39.94
944.131	3.07
944.308	72.7
944.484	-99.33
944.66	56.32
944.836	-46.08
945.012	31.74
945.188	54.27
945.364	21.5
945.54	-15.36
945.716	33.79
945.892	35.84
946.068	-41.98
946.244	60.42
946.42	48.13
946.596	-64.51
946.772	-9.22
946.948	-74.75
947.124	-46.08
947.3	-7.17
947.475	46.08
947.651	11.26
947.827	-54.27
948.003	5.12
948.179	25.6
948.355	-82.94
948.531	9.22
948.706	-91.13
948.882	66.56
949.058	52.22
949.234	44.03
949.409	-46.08
949.585	111.61
949.761	54.27
949.937	11.26
950.112	-46.08
950.288	46.08
950.464	-1.02
950.639	29.7
950.815	76.8
950.991	-50.18
951.166	31.74
951.342	44.03
951.518	60.42
951.693	-29.7
951.869	-39.94
952.044	27.65
952.22	33.79
952.395	41.98
952.571	-1.02
952.747	-23.55
952.922	52.22
953.098	23.55
953.273	-33.79
953.448	-23.55
953.624	-66.56
953.799	60.42
953.975	87.04
954.15	21.5
954.326	-33.79
954.501	60.42
954.676	87.04
954.852	39.94
955.027	-68.61
955.203	25.6
955.378	-66.56
955.553	52.22
955.729	-1.02
955.904	-11.26
956.079	181.25
956.254	-52.22
956.43	-37.89
956.605	7.17
956.78	17.41
956.955	76.8
957.131	99.33
957.306	54.27
957.481	52.22
957.656	-80.89
957.831	39.94
958.007	21.5
958.182	-56.32
958.357	3.07
958.532	-68.61
958.707	9.22
958.882	-46.08
959.057	33.79
959.232	-9.22
959.407	-60.42
959.582	9.22
959.757	1.02
959.932	50.18
960.107	-9.22
960.282	37.89
960.457	-7.17
960.632	-7.17
960.807	-1.02
960.982	-9.22
961.157	-21.5
961.332	-31.74
961.507	-58.37
961.682	56.32
961.857	-29.7
962.032	93.18
962.206	27.65
962.381	19.46
962.556	-87.04
962.731	13.31
962.906	21.5
963.081	82.94
963.255	29.7
963.43	76.8
963.605	1.02
963.78	95.23
963.954	19.46
964.129	-19.46
964.304	91.13
964.479	-9.22
964.653	11.26
964.828	-60.42
965.003	72.7
965.177	44.03
965.352	-9.22
965.526	115.71
965.701	-21.5
965.876	37.89
966.05	50.18
966.225	99.33
966.399	-66.56
966.574	-27.65
966.748	-54.27
966.923	58.37
967.098	119.81
967.272	-25.6
967.446	13.31
967.621	78.85
967.795	68.61
967.97	39.94
968.144	76.8
968.319	-70.65
968.493	48.13
968.668	21.5
968.842	72.7
969.016	-7.17
969.191	-27.65
969.365	-11.26
969.539	11.26
969.714	109.57
969.888	-13.31
970.062	41.98
970.237	62.46
970.411	76.8
970.585	-3.07
970.759	-27.65
970.934	-58.37
971.108	132.09
971.282	58.37
971.456	15.36
971.63	48.13
971.805	33.79
971.979	37.89
972.153	-130.05
972.327	7.17
972.501	-13.31
972.675	-29.7
972.849	80.89
973.024	-54.27
973.198	93.18
973.372	62.46
973.546	76.8
973.72	64.51
973.894	7.17
974.068	7.17
974.242	-21.5
974.416	-9.22
974.59	66.56
974.764	7.17
974.938	-1.02
975.112	136.19
975.286	-74.75
975.46	-31.74
975.633	66.56
975.807	115.71
975.981	-23.55
976.155	-37.89
976.329	17.41
976.503	-21.5
976.677	-72.7
976.85	-33.79
977.024	29.7
977.198	-33.79
977.372	-33.79
977.546	-13.31
977.719	-35.84
977.893	121.85
978.067	11.26
978.241	7.17
978.414	37.89
978.588	-84.99
978.762	-39.94
978.935	70.65
979.109	101.37
979.283	125.95
979.456	62.46
979.63	-125.95
979.804	-23.55
979.977	-3.07
980.151	15.36
980.324	9.22
980.498	37.89
980.671	52.22
980.845	103.42
981.018	58.37
981.192	-48.13
981.365	11.26
981.539	-1.02
981.712	89.09
981.886	-27.65
982.059	11.26
982.233	95.23
982.406	-56.32
982.58	-41.98
982.753	54.27
982.926	27.65
983.1	-66.56
983.273	74.75
983.446	37.89
983.62	-23.55
983.793	31.74
983.966	-107.52
984.14	7.17
984.313	-66.56
984.486	13.31
984.66	15.36
984.833	56.32
985.006	-64.51
985.179	72.7
985.352	-70.65
985.526	25.6
985.699	1.02
985.872	-7.17
986.045	152.57
986.218	52.22
986.391	109.57
986.565	-9.22
986.738	17.41
986.911	-121.85
987.084	117.76
987.257	1.02
987.43	-13.31
987.603	15.36
987.776	-44.03
987.949	9.22
988.122	58.37
988.295	33.79
988.468	-3.07
988.641	123.9
988.814	-66.56
988.987	84.99
989.16	46.08
989.333	-31.74
989.506	44.03
989.679	74.75
989.852	-107.52
990.025	-23.55
990.197	19.46
990.37	29.7
990.543	91.13
990.716	52.22
990.889	-23.55
991.062	-3.07
991.234	-41.98
991.407	121.85
991.58	78.85
991.753	50.18
991.925	-13.31
992.098	19.46
992.271	-19.46
992.444	21.5
992.616	-60.42
992.789	76.8
992.962	-48.13
993.134	89.09
993.307	25.6
993.479	27.65
993.652	-33.79
993.825	-19.46
993.997	33.79
994.17	103.42
994.342	-50.18
994.515	103.42
994.688	-72.7
994.86	15.36
995.033	7.17
995.205	-15.36
995.378	80.89
995.55	74.75
995.723	3.07
995.895	46.08
996.067	-62.46
996.24	-17.41
996.412	-46.08
996.585	-52.22
996.757	-48.13
996.929	103.42
997.102	48.13
997.274	119.81
997.447	-60.42
997.619	37.89
997.791	21.5
997.964	31.74
998.136	35.84
998.308	60.42
998.48	-5.12
998.653	95.23
998.825	1.02
998.997	80.89
999.169	13.31
999.342	74.75
999.514	25.6
999.686	64.51
999.858	-21.5
1000.03	-3.07
1000.202	-9.22
1000.374	-60.42
1000.547	33.79
1000.719	-111.61
1000.891	54.27
1001.063	33.79
1001.235	-76.8
1001.407	-158.72
1001.579	29.7
1001.751	-11.26
1001.923	15.36
1002.095	17.41
1002.267	111.61
1002.439	70.65
1002.611	31.74
1002.783	11.26
1002.955	-37.89
1003.127	-1.02
1003.299	1.02
1003.471	78.85
1003.643	-78.85
1003.815	9.22
1003.986	3.07
1004.158	-37.89
1004.33	-5.12
1004.502	-93.18
1004.674	21.5
1004.846	-17.41
1005.017	46.08
1005.189	121.85
1005.361	117.76
1005.533	87.04
1005.704	72.7
1005.876	60.42
1006.048	44.03
1006.22	11.26
1006.391	-78.85
1006.563	68.61
1006.735	19.46
1006.906	5.12
1007.078	-58.37
1007.25	68.61
1007.421	52.22
1007.593	-15.36
1007.764	11.26
1007.936	44.03
1008.108	84.99
1008.279	31.74
1008.451	62.46
1008.622	66.56
1008.794	-93.18
1008.965	-11.26
1009.137	-78.85
1009.308	72.7
1009.48	-87.04
1009.651	72.7
1009.823	-19.46
1009.994	15.36
1010.165	70.65
1010.337	84.99
1010.508	31.74
1010.68	-119.81
1010.851	48.13
1011.022	35.84
1011.194	-76.8
1011.365	1.02
1011.536	56.32
1011.708	37.89
1011.879	-33.79
1012.05	111.61
1012.222	29.7
1012.393	-48.13
1012.564	-52.22
1012.735	-27.65
1012.906	46.08
1013.078	62.46
1013.249	21.5
1013.42	101.37
1013.591	-37.89
1013.762	-27.65
1013.934	50.18
1014.105	72.7
1014.276	-33.79
1014.447	-46.08
1014.618	33.79
1014.789	-35.84
1014.96	60.42
1015.131	9.22
1015.302	121.85
1015.473	35.84
1015.644	-41.98
1015.815	35.84
1015.986	-123.9
1016.157	60.42
1016.328	-58.37
1016.499	35.84
1016.67	31.74
1016.841	11.26
1017.012	11.26
1017.183	-21.5
1017.354	39.94
1017.525	158.72
1017.696	31.74
1017.867	7.17
1018.037	64.51
1018.208	35.84
1018.379	-74.75
1018.55	39.94
1018.721	44.03
1018.891	-1.02
1019.062	25.6
1019.233	7.17
1019.404	84.99
1019.574	-41.98
1019.745	-1.02
1019.916	-9.22
1020.087	-13.31
1020.257	-44.03
1020.428	-95.23
1020.599	3.07
1020.769	-1.02
1020.94	37.89
1021.11	-146.43
1021.281	84.99
1021.452	107.52
1021.622	25.6
1021.793	-1.02
1021.963	31.74
1022.134	-76.8
1022.305	17.41
1022.475	-64.51
1022.646	27.65
1022.816	33.79
1022.987	9.22
1023.157	44.03
1023.327	121.85
1023.498	-115.71
1023.668	-7.17
1023.839	54.27
1024.009	95.23
1024.18	1.02
1024.35	-23.55
1024.52	-13.31
1024.691	-29.7
1024.861	-52.22
1025.031	7.17
1025.202	76.8
1025.372	9.22
1025.542	-62.46
1025.713	3.07
1025.883	23.55
1026.053	31.74
1026.223	-50.18
1026.394	-89.09
1026.564	-31.74
1026.734	-19.46
1026.904	-54.27
1027.074	15.36
1027.245	9.22
1027.415	99.33
1027.585	23.55
1027.755	13.31
1027.925	-60.42
1028.095	80.89
1028.265	-72.7
1028.435	54.27
1028.606	44.03
1028.776	58.37
1028.946	-17.41
1029.116	29.7
1029.286	33.79
1029.456	-39.94
1029.626	5.12
1029.796	148.48
1029.966	-105.47
1030.136	-27.65
1030.306	70.65
1030.475	-11.26
1030.645	70.65
1030.815	117.76
1030.985	-17.41
1031.155	-72.7
1031.325	-78.85
1031.495	13.31
1031.665	-35.84
1031.835	-1.02
1032.004	29.7
1032.174	74.75
1032.344	33.79
1032.514	62.46
1032.684	-11.26
1032.853	25.6
1033.023	119.81
1033.193	-52.22
1033.362	-97.28
1033.532	-82.94
1033.702	89.09
1033.872	-31.74
1034.041	-13.31
1034.211	-33.79
1034.381	29.7
1034.55	17.41
1034.72	3.07
1034.889	109.57
1035.059	41.98
1035.229	39.94
1035.398	-58.37
1035.568	-58.37
1035.737	-39.94
1035.907	7.17
1036.076	29.7
1036.246	-17.41
1036.415	31.74
1036.585	-1.02
1036.754	17.41
1036.924	95.23
1037.093	29.7
1037.263	50.18
1037.432	7.17
1037.601	-5.12
1037.771	-15.36
1037.94	101.37
1038.11	50.18
1038.279	21.5
1038.448	60.42
1038.618	-21.5
1038.787	27.65
1038.956	37.89
1039.126	-9.22
1039.295	39.94
1039.464	78.85
1039.633	23.55
1039.803	-50.18
1039.972	185.34
1040.141	5.12
1040.31	52.22
1040.479	-39.94
1040.649	-11.26
1040.818	44.03
1040.987	19.46
1041.156	107.52
1041.325	-41.98
1041.494	60.42
1041.663	-41.98
1041.833	48.13
1042.002	27.65
1042.171	89.09
1042.34	54.27
1042.509	84.99
1042.678	-78.85
