Data from LSP79_X16_Subt2_14-26-05-369.txt Node
Date: Fri Aug 18 14:26:05 EDT 2023
User: Emmanuel
Spectrometer: USB4A00615
Scans to average: 1
Trigger mode: 1
Integration Time (sec): 5.000000E-3
Electric dark correction enabled: true
Boxcar width: 0
XAxis mode: Wavelengths
Number of Pixels in Spectrum: 3648
>>>>>Begin Spectral Data<<<<<
346.606	-145.92
346.818	-145.92
347.029	-145.92
347.241	-66.05
347.452	-18.94
347.664	108.03
347.876	15.87
348.087	5.63
348.299	126.46
348.51	-29.18
348.722	-96.77
348.933	-14.85
349.145	19.97
349.356	-6.66
349.568	-61.95
349.779	-98.81
349.991	32.26
350.202	-20.99
350.414	48.64
350.625	-23.04
350.836	-39.42
351.048	-37.38
351.259	-41.47
351.471	124.41
351.682	-51.71
351.893	-2.56
352.105	22.02
352.316	42.5
352.527	32.26
352.739	-31.23
352.95	54.78
353.161	50.69
353.372	79.36
353.584	62.98
353.795	73.21
354.006	32.26
354.217	73.21
354.429	-90.62
354.64	-33.28
354.851	-4.61
355.062	13.82
355.274	62.98
355.485	-4.61
355.696	26.11
355.907	-147.97
356.118	32.26
356.329	38.4
356.54	73.21
356.752	-43.52
356.963	-76.29
357.174	17.92
357.385	-4.61
357.596	126.46
357.807	93.69
358.018	50.69
358.229	-14.85
358.44	-74.24
358.651	42.5
358.862	-57.86
359.073	34.3
359.284	-111.1
359.495	-78.33
359.706	-31.23
359.917	-70.14
360.128	-20.99
360.339	67.07
360.55	-64
360.761	-12.8
360.972	-20.99
361.182	-33.28
361.393	-18.94
361.604	118.27
361.815	52.74
362.026	-8.7
362.237	13.82
362.447	-49.66
362.658	28.16
362.869	93.69
363.08	-25.09
363.291	77.31
363.501	48.64
363.712	-66.05
363.923	-39.42
364.134	-0.51
364.344	11.78
364.555	116.22
364.766	-72.19
364.976	-12.8
365.187	-39.42
365.398	-6.66
365.608	-4.61
365.819	42.5
366.03	-57.86
366.24	-33.28
366.451	-16.9
366.662	-10.75
366.872	-100.86
367.083	30.21
367.293	-68.09
367.504	3.58
367.714	22.02
367.925	-25.09
368.135	28.16
368.346	13.82
368.557	60.93
368.767	-14.85
368.977	-14.85
369.188	-18.94
369.398	-2.56
369.609	-4.61
369.819	15.87
370.03	-27.14
370.24	-29.18
370.451	54.78
370.661	114.17
370.871	-4.61
371.082	-14.85
371.292	-115.2
371.502	-43.52
371.713	146.94
371.923	91.65
372.133	42.5
372.344	-53.76
372.554	36.35
372.764	24.06
372.975	40.45
373.185	3.58
373.395	89.6
373.605	-61.95
373.816	71.17
374.026	-14.85
374.236	-10.75
374.446	-20.99
374.656	60.93
374.867	116.22
375.077	118.27
375.287	54.78
375.497	54.78
375.707	50.69
375.917	-25.09
376.127	-6.66
376.338	110.08
376.548	-6.66
376.758	60.93
376.968	26.11
377.178	42.5
377.388	24.06
377.598	44.54
377.808	-16.9
378.018	81.41
378.228	62.98
378.438	44.54
378.648	85.5
378.858	-20.99
379.068	-47.62
379.278	28.16
379.488	-41.47
379.698	13.82
379.908	-0.51
380.118	-16.9
380.327	38.4
380.537	-100.86
380.747	22.02
380.957	44.54
381.167	-61.95
381.377	1.54
381.587	42.5
381.796	52.74
382.006	-66.05
382.216	11.78
382.426	-37.38
382.636	-2.56
382.845	-8.7
383.055	65.02
383.265	-61.95
383.475	118.27
383.684	-72.19
383.894	-25.09
384.104	5.63
384.313	-10.75
384.523	-78.33
384.733	140.8
384.942	-2.56
385.152	60.93
385.362	-107.01
385.571	-39.42
385.781	-51.71
385.991	114.17
386.2	-37.38
386.41	54.78
386.619	5.63
386.829	-61.95
387.038	7.68
387.248	-82.43
387.457	-129.53
387.667	-53.76
387.876	56.83
388.086	56.83
388.295	32.26
388.505	11.78
388.714	54.78
388.924	36.35
389.133	89.6
389.343	-39.42
389.552	44.54
389.762	54.78
389.971	7.68
390.18	26.11
390.39	-39.42
390.599	58.88
390.808	-10.75
391.018	-16.9
391.227	-8.7
391.436	36.35
391.646	-57.86
391.855	-84.48
392.064	148.99
392.274	-61.95
392.483	26.11
392.692	5.63
392.901	-84.48
393.111	54.78
393.32	-18.94
393.529	54.78
393.738	-27.14
393.947	9.73
394.157	-57.86
394.366	-6.66
394.575	58.88
394.784	60.93
394.993	-53.76
395.202	-61.95
395.411	-8.7
395.62	44.54
395.83	9.73
396.039	-104.96
396.248	-37.38
396.457	-4.61
396.666	77.31
396.875	99.84
397.084	-8.7
397.293	-29.18
397.502	22.02
397.711	9.73
397.92	11.78
398.129	79.36
398.338	11.78
398.547	-49.66
398.756	3.58
398.965	3.58
399.174	-0.51
399.382	13.82
399.591	-16.9
399.8	67.07
400.009	48.64
400.218	26.11
400.427	-8.7
400.636	-49.66
400.844	85.5
401.053	17.92
401.262	19.97
401.471	62.98
401.68	83.45
401.888	75.26
402.097	-31.23
402.306	112.13
402.515	44.54
402.723	-45.57
402.932	-33.28
403.141	28.16
403.35	11.78
403.558	34.3
403.767	-61.95
403.976	46.59
404.184	-61.95
404.393	-16.9
404.602	-29.18
404.81	-82.43
405.019	46.59
405.227	85.5
405.436	32.26
405.645	-47.62
405.853	-70.14
406.062	93.69
406.27	97.79
406.479	-76.29
406.687	-66.05
406.896	171.52
407.104	3.58
407.313	69.12
407.521	-104.96
407.73	34.3
407.938	-35.33
408.147	69.12
408.355	89.6
408.563	52.74
408.772	5.63
408.98	-96.77
409.189	-43.52
409.397	17.92
409.605	-20.99
409.814	13.82
410.022	-0.51
410.23	105.98
410.439	105.98
410.647	-33.28
410.855	83.45
411.064	95.74
411.272	-76.29
411.48	-6.66
411.688	32.26
411.897	97.79
412.105	-6.66
412.313	-14.85
412.521	-10.75
412.73	-37.38
412.938	28.16
413.146	42.5
413.354	52.74
413.562	83.45
413.77	89.6
413.979	-20.99
414.187	73.21
414.395	-10.75
414.603	-41.47
414.811	44.54
415.019	103.93
415.227	9.73
415.435	73.21
415.643	130.56
415.851	-4.61
416.059	54.78
416.267	36.35
416.475	52.74
416.683	128.51
416.891	130.56
417.099	321.02
417.307	269.82
417.515	482.81
417.723	181.76
417.931	185.85
418.139	69.12
418.347	134.65
418.555	140.8
418.763	132.61
418.971	-18.94
419.179	-35.33
419.386	32.26
419.594	36.35
419.802	138.75
420.01	116.22
420.218	175.61
420.426	335.35
420.633	265.72
420.841	843.25
421.049	435.71
421.257	1254.89
421.464	1078.77
421.672	1263.08
421.88	628.21
422.088	245.24
422.295	302.59
422.503	122.37
422.711	103.93
422.918	212.48
423.126	134.65
423.334	-31.23
423.541	5.63
423.749	99.84
423.956	153.09
424.164	-23.04
424.372	73.21
424.579	46.59
424.787	116.22
424.994	69.12
425.202	212.48
425.409	173.57
425.617	54.78
425.824	118.27
426.032	5.63
426.239	3.58
426.447	153.09
426.654	120.32
426.862	114.17
427.069	460.28
427.277	228.86
427.484	417.27
427.692	228.86
427.899	466.42
428.106	663.03
428.314	394.75
428.521	269.82
428.728	247.29
428.936	32.26
429.143	161.28
429.351	83.45
429.558	67.07
429.765	108.03
429.972	-10.75
430.18	93.69
430.387	255.48
430.594	112.13
430.801	169.47
431.009	353.79
431.216	130.56
431.423	108.03
431.63	-12.8
431.838	134.65
432.045	13.82
432.252	-10.75
432.459	99.84
432.666	19.97
432.873	124.41
433.081	48.64
433.288	34.3
433.495	75.26
433.702	155.13
433.909	204.28
434.116	44.54
434.323	161.28
434.53	130.56
434.737	87.55
434.944	249.34
435.151	187.9
435.358	423.42
435.565	185.85
435.772	110.08
435.979	105.98
436.186	228.86
436.393	-33.28
436.6	46.59
436.807	-4.61
437.014	28.16
437.221	26.11
437.428	15.87
437.635	157.18
437.841	42.5
438.048	116.22
438.255	5.63
438.462	-14.85
438.669	103.93
438.876	60.93
439.082	132.61
439.289	87.55
439.496	79.36
439.703	69.12
439.91	85.5
440.116	208.38
440.323	22.02
440.53	108.03
440.737	48.64
440.943	136.7
441.15	122.37
441.357	153.09
441.563	163.33
441.77	40.45
441.977	212.48
442.183	99.84
442.39	142.85
442.597	177.66
442.803	167.42
443.01	144.89
443.216	235
443.423	187.9
443.63	206.33
443.836	185.85
444.043	187.9
444.249	171.52
444.456	228.86
444.662	116.22
444.869	118.27
445.075	138.75
445.282	97.79
445.488	7.68
445.695	185.85
445.901	155.13
446.107	130.56
446.314	46.59
446.52	306.68
446.727	110.08
446.933	105.98
447.139	108.03
447.346	230.91
447.552	179.71
447.759	155.13
447.965	71.17
448.171	124.41
448.378	-18.94
448.584	67.07
448.79	302.59
448.996	372.22
449.203	126.46
449.409	288.25
449.615	93.69
449.821	151.04
450.028	120.32
450.234	331.26
450.44	325.12
450.646	161.28
450.852	177.66
451.059	105.98
451.265	161.28
451.471	189.95
451.677	282.11
451.883	429.56
452.089	181.76
452.295	136.7
452.502	67.07
452.708	439.8
452.914	179.71
453.12	398.84
453.326	95.74
453.532	310.78
453.738	126.46
453.944	247.29
454.15	216.57
454.356	222.72
454.562	91.65
454.768	230.91
454.974	136.7
455.18	128.51
455.386	126.46
455.592	151.04
455.798	5.63
456.003	81.41
456.209	249.34
456.415	95.74
456.621	142.85
456.827	200.19
457.033	36.35
457.239	65.02
457.444	91.65
457.65	198.14
457.856	157.18
458.062	97.79
458.268	130.56
458.473	212.48
458.679	67.07
458.885	157.18
459.091	52.74
459.296	294.4
459.502	237.05
459.708	204.28
459.914	15.87
460.119	308.73
460.325	130.56
460.531	216.57
460.736	212.48
460.942	77.31
461.147	120.32
461.353	116.22
461.559	118.27
461.764	265.72
461.97	114.17
462.175	157.18
462.381	175.61
462.587	232.96
462.792	-14.85
462.998	114.17
463.203	103.93
463.409	337.4
463.614	235
463.82	265.72
464.025	87.55
464.231	304.64
464.436	171.52
464.641	95.74
464.847	58.88
465.052	239.1
465.258	56.83
465.463	239.1
465.669	142.85
465.874	132.61
466.079	58.88
466.285	404.99
466.49	189.95
466.695	243.2
466.901	282.11
467.106	361.98
467.311	26.11
467.516	181.76
467.722	325.12
467.927	280.06
468.132	114.17
468.338	435.71
468.543	400.89
468.748	151.04
468.953	157.18
469.158	378.36
469.364	155.13
469.569	562.68
469.774	232.96
469.979	527.86
470.184	261.63
470.389	572.92
470.594	249.34
470.8	703.99
471.005	112.13
471.21	869.87
471.415	235
471.62	460.28
471.825	388.6
472.03	572.92
472.235	558.58
472.44	726.52
472.645	353.79
472.85	902.64
473.055	763.38
473.26	773.62
473.465	396.79
473.67	685.56
473.875	620.02
474.08	925.17
474.285	361.98
474.49	777.72
474.695	349.69
474.899	587.26
475.104	763.38
475.309	904.69
475.514	499.19
475.719	1486.31
475.924	609.78
476.128	738.8
476.333	1025.52
476.538	1191.41
476.743	570.87
476.948	1218.03
477.152	955.89
477.357	1463.79
477.562	687.61
477.767	1054.19
477.971	876.02
478.176	1099.25
478.381	675.32
478.585	919.03
478.79	603.64
478.995	1289.71
479.199	1121.77
479.404	1322.48
479.609	894.45
479.813	1463.79
480.018	1164.78
480.223	1793.51
480.427	1613.29
480.632	2186.72
480.836	1566.18
481.041	2268.64
481.245	1621.48
481.45	1467.88
481.654	1508.84
481.859	1711.59
482.063	1576.42
482.268	1924.58
482.472	1738.21
482.677	1652.2
482.881	1578.47
483.086	1557.99
483.29	1652.2
483.495	1779.17
483.699	1785.32
483.903	1756.65
484.108	1469.93
484.312	2401.76
484.517	4195.78
484.721	3177.94
484.925	2346.46
485.13	2432.47
485.334	1695.21
485.538	2086.37
485.743	1947.11
485.947	2041.31
486.151	1779.17
486.355	2106.85
486.56	1893.86
486.764	2346.46
486.968	1920.48
487.172	1547.75
487.377	1906.15
487.581	2104.8
487.785	1603.05
487.989	3296.72
488.193	2424.28
488.397	2674.14
488.602	2643.42
488.806	3597.77
489.01	2031.07
489.214	2309.6
489.418	2100.7
489.622	2239.97
489.826	1730.02
490.03	2641.37
490.234	2102.75
490.438	2182.62
490.642	2012.64
490.846	1936.87
491.05	1557.99
491.254	2684.38
491.458	1398.25
491.662	2727.38
491.866	1912.29
492.07	1957.35
492.274	1615.34
492.478	2455
492.682	1459.69
492.886	2045.41
493.09	2041.31
493.294	2231.77
493.498	1662.44
493.701	2659.8
493.905	1533.42
494.109	2336.22
494.313	1857
494.517	2614.74
494.721	1740.26
494.924	2336.22
495.128	1527.27
495.332	2651.61
495.536	1818.08
495.739	2452.95
495.943	1699.3
496.147	2295.26
496.351	1412.59
496.554	2598.36
496.758	1742.31
496.962	1816.04
497.165	1326.57
497.369	2289.12
497.573	1445.35
497.776	2450.91
497.98	1914.34
498.184	2412
498.387	2506.2
498.591	2520.54
498.794	1838.56
498.998	2092.51
499.202	1578.47
499.405	2178.53
499.609	1527.27
499.812	1859.04
500.016	1633.77
500.219	2608.6
500.423	2741.72
500.626	4134.34
500.83	2688.47
501.033	3010
501.237	1508.84
501.44	3853.77
501.643	2866.64
501.847	2381.28
502.05	2287.07
502.254	2784.73
502.457	1967.59
502.66	2721.24
502.864	1687.01
503.067	1746.41
503.271	2149.86
503.474	1730.02
503.677	1648.1
503.88	2479.58
504.084	1476.07
504.287	2059.74
504.49	2174.43
504.694	2045.41
504.897	1613.29
505.1	3595.72
505.303	4537.79
505.507	3888.58
505.71	2926.04
505.913	2821.59
506.116	1787.36
506.319	2915.8
506.522	2160.1
506.726	3225.04
506.929	3634.63
507.132	3294.67
507.335	1824.23
507.538	2321.88
507.741	1674.73
507.944	1945.06
508.147	1347.05
508.35	2362.84
508.553	2196.96
508.756	2102.75
508.959	1246.7
509.163	2538.97
509.366	1050.1
509.569	2448.86
509.771	2127.33
509.974	1965.54
510.177	2297.31
510.38	2903.51
510.583	1512.94
510.786	2342.36
510.989	2305.5
511.192	2006.5
511.395	1828.32
511.598	2125.28
511.801	1592.81
512.004	2846.16
512.206	1525.22
512.409	2563.54
512.612	1897.96
512.815	2256.35
513.018	2287.07
513.22	2594.26
513.423	1281.52
513.626	2471.39
513.829	1670.63
514.032	2393.56
514.234	2776.53
514.437	2764.25
514.64	2004.45
514.842	2758.1
515.045	1650.15
515.248	2432.47
515.45	2160.1
515.653	1785.32
515.856	2516.44
516.058	2393.56
516.261	2086.37
516.464	2057.7
516.666	1119.73
516.869	2676.18
517.071	2076.13
517.274	2100.7
517.477	1758.69
517.679	2878.93
517.882	1789.41
518.084	2819.54
518.287	2401.76
518.489	2792.92
518.692	2964.95
518.894	2770.39
519.097	2498.01
519.299	2979.28
519.501	2461.15
519.704	2995.67
519.906	2233.82
520.109	2899.41
520.311	2549.21
520.514	3700.17
520.716	2780.63
520.918	3083.73
521.121	2377.18
521.323	2991.57
521.525	1953.25
521.728	2647.51
521.93	2495.96
522.132	4347.33
522.335	3763.65
522.537	3665.35
522.739	1578.47
522.941	2829.78
523.144	2459.1
523.346	2033.12
523.548	2403.8
523.75	2678.23
523.952	1848.8
524.155	2678.23
524.357	1398.25
524.559	2217.44
524.761	1955.3
524.963	2360.8
525.165	2258.4
525.368	2919.89
525.57	2276.83
525.772	3552.71
525.974	2203.1
526.176	2035.17
526.378	1680.87
526.58	1883.62
526.782	1994.21
526.984	2428.38
527.186	1347.05
527.388	2483.67
527.59	1431.02
527.792	2227.68
527.994	1693.16
528.196	1918.43
528.398	1795.56
528.6	2412
528.802	808.44
529.004	2686.42
529.206	1215.98
529.408	2792.92
529.609	2125.28
529.811	2207.2
530.013	1859.04
530.215	2065.89
530.417	1547.75
530.619	2581.98
530.821	1480.17
531.022	2481.63
531.224	1658.34
531.426	2412
531.628	2158.05
531.829	2115.04
532.031	1701.35
532.233	2119.14
532.435	1537.51
532.636	1828.32
532.838	1816.04
533.04	1830.37
533.241	1926.63
533.443	1900
533.645	1750.5
533.846	2244.06
534.048	1609.19
534.25	2305.5
534.451	1471.98
534.653	2409.95
534.855	1715.69
535.056	1844.71
535.258	1732.07
535.459	2209.25
535.661	730.61
535.862	2276.83
536.064	949.75
536.265	1922.53
536.467	1369.58
536.668	1355.24
536.87	1727.97
537.071	1822.18
537.273	1433.07
537.474	2172.38
537.676	1177.07
537.877	1881.57
538.078	1000.94
538.28	1254.89
538.481	1592.81
538.683	1631.72
538.884	1101.3
539.085	1564.14
539.287	1365.48
539.488	2248.16
539.689	390.65
539.891	2029.03
540.092	1072.62
540.293	1469.93
540.495	1996.26
540.696	1312.24
540.897	1615.34
541.098	1490.41
541.3	1334.76
541.501	2307.55
541.702	886.26
541.903	1617.38
542.104	1627.62
542.306	1095.15
542.507	1482.22
542.708	1750.5
542.909	1007.09
543.11	2094.56
543.311	712.18
543.512	2029.03
543.713	1138.16
543.915	1500.65
544.116	1134.06
544.317	1463.79
544.518	1275.37
544.719	1252.84
544.92	1232.37
545.121	1531.37
545.322	1277.42
545.523	2219.49
545.724	1070.58
545.925	1801.7
546.126	1349.1
546.327	1654.25
546.528	1832.42
546.729	1195.5
546.929	1381.87
547.13	1943.01
547.331	1068.53
547.532	1996.26
547.733	1062.38
547.934	1879.52
548.135	798.2
548.336	1500.65
548.536	1514.98
548.737	1842.66
548.938	1588.71
549.139	2014.69
549.34	1252.84
549.54	2110.94
549.741	1312.24
549.942	2063.84
550.143	747
550.343	1861.09
550.544	1373.68
550.745	1725.93
550.945	3358.16
551.146	1859.04
551.347	1295.85
551.547	1979.87
551.748	1132.01
551.949	2029.03
552.149	1240.56
552.35	1590.76
552.551	1138.16
552.751	1371.63
552.952	1277.42
553.152	1132.01
553.353	1807.84
553.553	1922.53
553.754	1060.34
553.954	1926.63
554.155	810.48
554.356	1687.01
554.556	1166.83
554.756	1617.38
554.957	1267.18
555.157	1170.93
555.358	1807.84
555.558	1218.03
555.759	1205.74
555.959	1471.98
556.159	1005.04
556.36	2350.56
556.56	785.91
556.761	2248.16
556.961	1775.08
557.161	1893.86
557.362	1478.12
557.562	1965.54
557.762	1463.79
557.963	1994.21
558.163	1324.52
558.363	1304.04
558.563	1146.35
558.764	1897.96
558.964	1261.04
559.164	1691.11
559.364	1523.18
559.565	1431.02
559.765	1926.63
559.965	1283.56
560.165	1813.99
560.365	1781.22
560.565	1570.28
560.766	1783.27
560.966	1277.42
561.166	1590.76
561.366	1025.52
561.566	2156
561.766	841.2
561.966	1713.64
562.166	1471.98
562.366	1736.17
562.566	1809.89
562.766	1377.77
562.966	1703.4
563.166	1836.52
563.366	1207.79
563.566	1988.07
563.766	1168.88
563.966	2405.85
564.166	1474.03
564.366	2524.63
564.566	1326.57
564.766	1918.43
564.966	1285.61
565.166	1975.78
565.366	1357.29
565.565	1320.43
565.765	1078.77
565.965	1017.33
566.165	1002.99
566.365	1832.42
566.565	1068.53
566.764	1871.33
566.964	1105.39
567.164	1924.58
567.364	1138.16
567.564	1586.66
567.763	1162.73
567.963	421.37
568.163	1725.93
568.362	1553.9
568.562	933.36
568.762	1408.49
568.961	1175.02
569.161	1289.71
569.361	646.65
569.56	2065.89
569.76	579.06
569.96	1285.61
570.159	845.3
570.359	1326.57
570.558	1123.82
570.758	1093.1
570.958	841.2
571.157	1091.06
571.357	1054.19
571.556	1101.3
571.756	951.79
571.955	1400.3
572.155	656.89
572.354	2117.09
572.554	624.12
572.753	1801.7
572.953	1015.28
573.152	1467.88
573.351	839.16
573.551	1611.24
573.75	1256.94
573.95	644.6
574.149	714.23
574.348	1324.52
574.548	1070.58
574.747	1093.1
574.946	996.85
575.146	1539.56
575.345	663.03
575.544	1322.48
575.744	749.04
575.943	1512.94
576.142	685.56
576.342	1449.45
576.541	955.89
576.74	996.85
576.939	1062.38
577.138	554.49
577.338	843.25
577.537	904.69
577.736	1029.62
577.935	919.03
578.134	523.77
578.333	1185.26
578.533	728.56
578.732	855.54
578.931	644.6
579.13	1646.05
579.329	290.3
579.528	1758.69
579.727	896.5
579.926	1138.16
580.125	937.46
580.324	816.63
580.523	714.23
580.722	759.28
580.921	1058.29
581.12	810.48
581.319	777.72
581.518	994.8
581.717	599.54
581.916	611.83
582.115	585.21
582.314	1115.63
582.513	691.7
582.712	1494.51
582.911	388.6
583.109	1451.5
583.308	318.97
583.507	1279.47
583.706	802.29
583.905	1308.14
584.104	878.07
584.302	773.62
584.501	574.97
584.7	722.42
584.899	1046
585.098	415.23
585.296	814.58
585.495	759.28
585.694	757.24
585.892	964.08
586.091	462.33
586.29	871.92
586.488	589.3
586.687	1232.37
586.886	409.08
587.084	1175.02
587.283	597.49
587.482	843.25
587.68	785.91
587.879	1332.72
588.077	718.33
588.276	957.94
588.475	728.56
588.673	1101.3
588.872	1332.72
589.07	882.16
589.269	1175.02
589.467	959.99
589.666	867.83
589.864	828.92
590.063	843.25
590.261	826.87
590.46	914.93
590.658	1115.63
590.857	691.7
591.055	1062.38
591.253	642.55
591.452	1648.1
591.65	484.86
591.848	935.41
592.047	347.64
592.245	1086.96
592.444	392.7
592.642	632.31
592.84	536.06
593.038	812.53
593.237	830.96
593.435	663.03
593.633	658.93
593.832	626.17
594.03	1428.97
594.228	796.15
594.426	722.42
594.624	706.04
594.823	353.79
595.021	931.31
595.219	333.31
595.417	902.64
595.615	493.05
595.813	871.92
596.012	364.03
596.21	910.83
596.408	431.61
596.606	644.6
596.804	382.46
597.002	632.31
597.2	458.23
597.398	996.85
597.596	204.28
597.794	878.07
597.992	304.64
598.19	1002.99
598.388	396.79
598.586	1005.04
598.784	497.14
598.982	792.05
599.18	685.56
599.378	679.41
599.576	409.08
599.774	712.18
599.972	542.2
600.17	622.07
600.368	663.03
600.565	824.82
600.763	529.91
600.961	347.64
601.159	878.07
601.357	579.06
601.555	728.56
601.752	1023.47
601.95	718.33
602.148	544.25
602.346	1170.93
602.544	1605.1
602.741	916.98
602.939	1603.05
603.137	544.25
603.334	1406.44
603.532	687.61
603.73	1822.18
603.927	941.55
604.125	1238.51
604.323	609.78
604.52	1748.45
604.718	597.49
604.916	1584.62
605.113	693.75
605.311	1586.66
605.508	675.32
605.706	1273.32
605.904	603.64
606.101	943.6
606.299	566.78
606.496	785.91
606.694	538.1
606.891	890.35
607.089	374.27
607.286	603.64
607.484	462.33
607.681	376.31
607.879	744.95
608.076	585.21
608.273	603.64
608.471	765.43
608.668	550.39
608.866	622.07
609.063	849.4
609.26	806.39
609.458	683.51
609.655	896.5
609.852	556.54
610.05	841.2
610.247	488.95
610.444	785.91
610.642	527.86
610.839	640.5
611.036	624.12
611.233	488.95
611.431	542.2
611.628	708.09
611.825	667.13
612.022	683.51
612.22	486.9
612.417	552.44
612.614	325.12
612.811	577.02
613.008	382.46
613.205	402.94
613.402	337.4
613.6	837.11
613.797	222.72
613.994	755.19
614.191	392.7
614.388	656.89
614.585	216.57
614.782	560.63
614.979	81.41
615.176	591.35
615.373	112.13
615.57	482.81
615.767	187.9
615.964	497.14
616.161	81.41
616.358	554.49
616.555	280.06
616.752	359.93
616.949	105.98
617.146	458.23
617.343	140.8
617.539	314.88
617.736	105.98
617.933	257.53
618.13	194.05
618.327	519.67
618.524	132.61
618.721	271.87
618.917	192
619.114	468.47
619.311	249.34
619.508	429.56
619.704	181.76
619.901	212.48
620.098	171.52
620.295	243.2
620.491	138.75
620.688	282.11
620.885	192
621.081	288.25
621.278	108.03
621.475	331.26
621.671	151.04
621.868	163.33
622.065	175.61
622.261	292.35
622.458	95.74
622.655	167.42
622.851	185.85
623.048	93.69
623.244	222.72
623.441	169.47
623.637	204.28
623.834	153.09
624.03	136.7
624.227	146.94
624.423	214.52
624.62	228.86
624.816	7.68
625.013	290.3
625.209	99.84
625.406	235
625.602	83.45
625.798	251.39
625.995	71.17
626.191	257.53
626.388	142.85
626.584	318.97
626.78	128.51
626.977	208.38
627.173	-2.56
627.369	263.68
627.566	114.17
627.762	278.01
627.958	67.07
628.154	243.2
628.351	235
628.547	247.29
628.743	110.08
628.939	269.82
629.136	75.26
629.332	212.48
629.528	128.51
629.724	126.46
629.92	134.65
630.116	200.19
630.313	67.07
630.509	243.2
630.705	58.88
630.901	91.65
631.097	79.36
631.293	206.33
631.489	11.78
631.685	28.16
631.881	83.45
632.077	114.17
632.273	48.64
632.469	126.46
632.665	50.69
632.861	153.09
633.057	108.03
633.253	153.09
633.449	60.93
633.645	130.56
633.841	67.07
634.037	60.93
634.233	105.98
634.429	67.07
634.625	11.78
634.821	38.4
635.017	38.4
635.212	73.21
635.408	28.16
635.604	77.31
635.8	36.35
635.996	136.7
636.191	75.26
636.387	32.26
636.583	144.89
636.779	62.98
636.975	118.27
637.17	79.36
637.366	50.69
637.562	110.08
637.757	52.74
637.953	-14.85
638.149	-76.29
638.345	116.22
638.54	-8.7
638.736	56.83
638.931	28.16
639.127	48.64
639.323	103.93
639.518	83.45
639.714	58.88
639.909	46.59
640.105	95.74
640.301	15.87
640.496	-18.94
640.692	95.74
640.887	17.92
641.083	130.56
641.278	128.51
641.474	257.53
641.669	120.32
641.865	200.19
642.06	108.03
642.256	91.65
642.451	60.93
642.646	167.42
642.842	69.12
643.037	110.08
643.233	5.63
643.428	144.89
643.623	77.31
643.819	93.69
644.014	-72.19
644.209	-4.61
644.405	112.13
644.6	89.6
644.795	44.54
644.99	40.45
645.186	44.54
645.381	19.97
645.576	97.79
645.771	44.54
645.967	17.92
646.162	-18.94
646.357	52.74
646.552	108.03
646.747	75.26
646.943	-70.14
647.138	73.21
647.333	3.58
647.528	-53.76
647.723	155.13
647.918	62.98
648.113	85.5
648.308	-59.9
648.504	87.55
648.699	-0.51
648.894	-2.56
649.089	-23.04
649.284	-51.71
649.479	-23.04
649.674	24.06
649.869	-0.51
650.064	-47.62
650.259	-0.51
650.454	-45.57
650.649	7.68
650.844	3.58
651.038	-86.53
651.233	56.83
651.428	89.6
651.623	46.59
651.818	28.16
652.013	67.07
652.208	62.98
652.403	-94.72
652.597	50.69
652.792	52.74
652.987	60.93
653.182	-20.99
653.377	69.12
653.571	24.06
653.766	28.16
653.961	9.73
654.156	-20.99
654.35	3.58
654.545	-14.85
654.74	-8.7
654.935	-6.66
655.129	15.87
655.324	114.17
655.519	-35.33
655.713	81.41
655.908	1.54
656.102	62.98
656.297	50.69
656.492	9.73
656.686	138.75
656.881	-29.18
657.075	-23.04
657.27	-64
657.464	54.78
657.659	62.98
657.854	-57.86
658.048	-49.66
658.243	-88.57
658.437	-43.52
658.631	-66.05
658.826	-12.8
659.02	1.54
659.215	28.16
659.409	-74.24
659.604	50.69
659.798	-25.09
659.992	-20.99
660.187	-6.66
660.381	114.17
660.576	-8.7
660.77	97.79
660.964	36.35
661.159	-8.7
661.353	75.26
661.547	-29.18
661.742	-25.09
661.936	77.31
662.13	13.82
662.324	-61.95
662.519	73.21
662.713	132.61
662.907	40.45
663.101	-31.23
663.295	69.12
663.49	-10.75
663.684	9.73
663.878	13.82
664.072	65.02
664.266	58.88
664.46	-47.62
664.654	-37.38
664.849	-66.05
665.043	48.64
665.237	-2.56
665.431	-18.94
665.625	-6.66
665.819	50.69
666.013	-12.8
666.207	73.21
666.401	-4.61
666.595	17.92
666.789	-68.09
666.983	5.63
667.177	75.26
667.371	-37.38
667.565	-66.05
667.759	56.83
667.953	-49.66
668.147	-20.99
668.34	38.4
668.534	5.63
668.728	-72.19
668.922	-12.8
669.116	-29.18
669.31	30.21
669.504	-0.51
669.697	-4.61
669.891	-14.85
670.085	38.4
670.279	52.74
670.473	-39.42
670.666	50.69
670.86	13.82
671.054	-14.85
671.248	-61.95
671.441	-23.04
671.635	48.64
671.829	62.98
672.022	5.63
672.216	-37.38
672.41	-68.09
672.603	58.88
672.797	38.4
672.99	91.65
673.184	-51.71
673.378	-4.61
673.571	-25.09
673.765	-4.61
673.958	1.54
674.152	52.74
674.345	15.87
674.539	101.89
674.733	30.21
674.926	130.56
675.12	28.16
675.313	87.55
675.506	-2.56
675.7	1.54
675.893	-47.62
676.087	-0.51
676.28	-78.33
676.474	-39.42
676.667	-82.43
676.86	19.97
677.054	62.98
677.247	36.35
677.441	-49.66
677.634	40.45
677.827	46.59
678.02	32.26
678.214	56.83
678.407	-23.04
678.6	-2.56
678.794	-102.91
678.987	-66.05
679.18	34.3
679.373	-96.77
679.567	28.16
679.76	69.12
679.953	17.92
680.146	-31.23
680.339	-2.56
680.533	-33.28
680.726	-31.23
680.919	-16.9
681.112	-57.86
681.305	-49.66
681.498	26.11
681.691	-45.57
681.884	-2.56
682.077	5.63
682.271	36.35
682.464	-4.61
682.657	-12.8
682.85	15.87
683.043	-14.85
683.236	11.78
683.429	56.83
683.622	118.27
683.815	-2.56
684.008	17.92
684.201	79.36
684.393	-0.51
684.586	3.58
684.779	7.68
684.972	-20.99
685.165	7.68
685.358	48.64
685.551	-37.38
685.744	71.17
685.937	-2.56
686.129	15.87
686.322	58.88
686.515	-31.23
686.708	62.98
686.901	-55.81
687.093	-2.56
687.286	-41.47
687.479	-10.75
687.672	-61.95
687.864	-47.62
688.057	-14.85
688.25	126.46
688.442	5.63
688.635	13.82
688.828	-0.51
689.02	-23.04
689.213	79.36
689.406	52.74
689.598	93.69
689.791	60.93
689.984	-8.7
690.176	-41.47
690.369	44.54
690.561	-25.09
690.754	-2.56
690.946	97.79
691.139	-25.09
691.331	36.35
691.524	5.63
691.716	58.88
691.909	-23.04
692.101	19.97
692.294	144.89
692.486	13.82
692.679	93.69
692.871	36.35
693.063	40.45
693.256	-2.56
693.448	36.35
693.641	-4.61
693.833	-0.51
694.025	-6.66
694.218	114.17
694.41	-43.52
694.602	11.78
694.795	241.15
694.987	2786.77
695.179	10169.7
695.372	26752.1
695.564	31949.85
695.756	22441.13
695.948	18070.76
696.14	11052.38
696.333	7171.47
696.525	4353.47
696.717	1129.97
696.909	1215.98
697.101	126.46
697.294	173.57
697.486	52.74
697.678	36.35
697.87	7.68
698.062	91.65
698.254	32.26
698.446	5.63
698.638	26.11
698.83	46.59
699.022	50.69
699.215	56.83
699.407	81.41
699.599	-45.57
699.791	-10.75
699.983	-96.77
700.175	52.74
700.367	5.63
700.558	40.45
700.75	-14.85
700.942	44.54
701.134	-55.81
701.326	54.78
701.518	-4.61
701.71	-57.86
701.902	15.87
702.094	110.08
702.286	-18.94
702.477	77.31
702.669	48.64
702.861	13.82
703.053	26.11
703.245	42.5
703.436	128.51
703.628	48.64
703.82	-33.28
704.012	62.98
704.203	60.93
704.395	99.84
704.587	146.94
704.779	99.84
704.97	957.94
705.162	2364.89
705.354	12281.16
705.545	23524.51
705.737	27948.12
705.929	23547.03
706.12	15101.21
706.312	11476.3
706.503	7060.88
706.695	3268.05
706.887	2954.71
707.078	525.82
707.27	605.69
707.461	99.84
707.653	112.13
707.844	-0.51
708.036	124.41
708.227	183.81
708.419	24.06
708.61	-8.7
708.802	67.07
708.993	69.12
709.185	42.5
709.376	40.45
709.567	5.63
709.759	28.16
709.95	46.59
710.141	73.21
710.333	24.06
710.524	48.64
710.716	54.78
710.907	-59.9
711.098	9.73
711.289	-27.14
711.481	-12.8
711.672	108.03
711.863	93.69
712.055	3.58
712.246	9.73
712.437	-39.42
712.628	40.45
712.82	89.6
713.011	-33.28
713.202	52.74
713.393	83.45
713.584	237.05
713.775	296.44
713.967	-80.38
714.158	116.22
714.349	28.16
714.54	22.02
714.731	165.37
714.922	-8.7
715.113	7.68
715.304	67.07
715.495	32.26
715.686	-80.38
715.877	87.55
716.068	-0.51
716.259	34.3
716.45	22.02
716.641	-18.94
716.832	-27.14
717.023	15.87
717.214	-111.1
717.405	-35.33
717.596	-55.81
717.787	136.7
717.978	56.83
718.169	146.94
718.36	13.82
718.55	-100.86
718.741	-18.94
718.932	38.4
719.123	24.06
719.314	28.16
719.505	26.11
719.695	79.36
719.886	32.26
720.077	40.45
720.268	-55.81
720.458	103.93
720.649	-18.94
720.84	60.93
721.031	148.99
721.221	69.12
721.412	-68.09
721.603	124.41
721.793	-74.24
721.984	-4.61
722.175	128.51
722.365	24.06
722.556	85.5
722.746	-27.14
722.937	-25.09
723.128	46.59
723.318	40.45
723.509	-16.9
723.699	-0.51
723.89	26.11
724.08	46.59
724.271	52.74
724.461	67.07
724.652	103.93
724.842	-12.8
725.033	-43.52
725.223	5.63
725.414	-23.04
725.604	42.5
725.794	130.56
725.985	132.61
726.175	2557.4
726.366	2561.5
726.556	1900
726.746	480.76
726.937	194.05
727.127	9.73
727.317	81.41
727.508	19.97
727.698	-2.56
727.888	114.17
728.079	-51.71
728.269	1.54
728.459	-74.24
728.649	-104.96
728.84	46.59
729.03	32.26
729.22	15.87
729.41	-23.04
729.6	-31.23
729.791	-0.51
729.981	93.69
730.171	-45.57
730.361	-8.7
730.551	9.73
730.741	40.45
730.931	69.12
731.121	-107.01
731.311	34.3
731.502	77.31
731.692	93.69
731.882	-39.42
732.072	1.54
732.262	110.08
732.452	-31.23
732.642	-35.33
732.832	-20.99
733.022	48.64
733.212	52.74
733.402	-12.8
733.591	42.5
733.781	99.84
733.971	-23.04
734.161	1.54
734.351	52.74
734.541	-4.61
734.731	-23.04
734.921	9.73
735.111	-8.7
735.3	-4.61
735.49	65.02
735.68	-53.76
735.87	110.08
736.06	26.11
736.249	468.47
736.439	480.76
736.629	1480.17
736.819	5070.26
737.008	12023.11
737.198	25857.14
737.388	44180.32
737.577	36604.88
737.767	26917.99
737.957	23024.8
738.146	15342.87
738.336	10157.41
738.526	8267.14
738.715	3728.84
738.905	2848.21
739.094	1324.52
739.284	407.03
739.474	247.29
739.663	134.65
739.853	73.21
740.042	91.65
740.232	-4.61
740.421	-10.75
740.611	60.93
740.8	99.84
740.99	-33.28
741.179	28.16
741.369	-68.09
741.558	118.27
741.748	54.78
741.937	73.21
742.126	75.26
742.316	-10.75
742.505	52.74
742.695	5.63
742.884	30.21
743.073	48.64
743.263	-0.51
743.452	-18.94
743.641	7.68
743.831	69.12
744.02	42.5
744.209	-53.76
744.398	28.16
744.588	-6.66
744.777	87.55
744.966	-43.52
745.155	77.31
745.345	-66.05
745.534	1.54
745.723	-12.8
745.912	26.11
746.101	7.68
746.29	-6.66
746.48	-8.7
746.669	32.26
746.858	71.17
747.047	13.82
747.236	58.88
747.425	17.92
747.614	73.21
747.803	54.78
747.992	-49.66
748.181	19.97
748.37	36.35
748.559	214.52
748.748	726.52
748.937	2252.25
749.126	10945.88
749.315	17972.46
749.504	28206.16
749.693	31056.93
749.882	24222.86
750.071	25296
750.26	30880.81
750.449	34509.81
750.638	42189.69
750.826	37381.06
751.015	25787.51
751.204	22578.34
751.393	17804.53
751.582	10546.53
751.771	9422.19
751.959	5596.59
752.148	3583.43
752.337	2512.35
752.526	890.35
752.714	169.47
752.903	226.81
753.092	87.55
753.281	-2.56
753.469	36.35
753.658	-14.85
753.847	28.16
754.035	26.11
754.224	7.68
754.413	91.65
754.601	-12.8
754.79	5.63
754.979	69.12
755.167	-4.61
755.356	15.87
755.544	28.16
755.733	32.26
755.921	-49.66
756.11	17.92
756.298	-43.52
756.487	28.16
756.675	-12.8
756.864	40.45
757.052	-68.09
757.241	198.14
757.429	-135.68
757.618	15.87
757.806	22.02
757.995	7.68
758.183	44.54
758.371	5.63
758.56	-6.66
758.748	-39.42
758.937	-25.09
759.125	83.45
759.313	-6.66
759.502	-18.94
759.69	-43.52
759.878	-4.61
760.066	93.69
760.255	22.02
760.443	-139.77
760.631	58.88
760.819	56.83
761.008	-45.57
761.196	220.67
761.384	288.25
761.572	798.2
761.761	4847.03
761.949	8871.29
762.137	15650.07
762.325	35867.61
762.513	55093.94
762.701	61252.19
762.889	64451.11
763.077	53193.43
763.266	38636.47
763.454	34677.74
763.642	25934.96
763.83	18734.31
764.018	15854.86
764.206	11758.92
764.394	6948.25
764.582	6313.38
764.77	2921.94
764.958	1056.24
765.146	593.4
765.334	366.07
765.522	5.63
765.71	-8.7
765.898	19.97
766.085	-49.66
766.273	97.79
766.461	28.16
766.649	95.74
766.837	-59.9
767.025	38.4
767.213	50.69
767.401	9.73
767.588	-14.85
767.776	-33.28
767.964	130.56
768.152	-25.09
768.339	3.58
768.527	50.69
768.715	19.97
768.903	24.06
769.09	-35.33
769.278	-12.8
769.466	42.5
769.654	44.54
769.841	58.88
770.029	-64
770.217	15.87
770.404	85.5
770.592	50.69
770.779	89.6
770.967	1510.89
771.155	4339.13
771.342	17294.58
771.53	33793.02
771.717	31198.24
771.905	22899.87
772.092	23133.34
772.28	15140.12
772.467	10063.21
772.655	7320.98
772.842	4582.84
773.03	1310.19
773.217	988.66
773.405	122.37
773.592	-49.66
773.78	83.45
773.967	65.02
774.154	-74.24
774.342	-68.09
774.529	-6.66
774.717	-31.23
774.904	-10.75
775.091	3.58
775.279	-23.04
775.466	-49.66
775.653	81.41
775.841	142.85
776.028	93.69
776.215	17.92
776.402	-72.19
776.59	-2.56
776.777	75.26
776.964	1.54
777.151	50.69
777.338	-2.56
777.526	30.21
777.713	34.3
777.9	-121.34
778.087	-23.04
778.274	-14.85
778.461	73.21
778.649	34.3
778.836	-18.94
779.023	5.63
779.21	163.33
779.397	-14.85
779.584	155.13
779.771	54.78
779.958	19.97
780.145	67.07
780.332	11.78
780.519	87.55
780.706	-61.95
780.893	-64
781.08	-109.05
781.267	-31.23
781.454	13.82
781.641	-115.2
781.828	50.69
782.015	22.02
782.202	132.61
782.388	42.5
782.575	85.5
782.762	5.63
782.949	24.06
783.136	46.59
783.323	44.54
783.509	-39.42
783.696	71.17
783.883	50.69
784.07	75.26
784.257	17.92
784.443	7.68
784.63	56.83
784.817	-23.04
785.004	38.4
785.19	-29.18
785.377	87.55
785.564	-41.47
785.75	34.3
785.937	-16.9
786.124	-8.7
786.31	-20.99
786.497	-31.23
786.683	-49.66
786.87	-61.95
787.057	19.97
787.243	77.31
787.43	-14.85
787.616	42.5
787.803	58.88
787.989	7.68
788.176	-66.05
788.362	1.54
788.549	-29.18
788.735	26.11
788.922	26.11
789.108	-10.75
789.295	-59.9
789.481	11.78
789.668	54.78
789.854	46.59
790.04	19.97
790.227	7.68
790.413	-37.38
790.599	-49.66
790.786	-41.47
790.972	38.4
791.158	52.74
791.345	42.5
791.531	-41.47
791.717	34.3
791.904	-29.18
792.09	-16.9
792.276	-51.71
792.462	-61.95
792.649	5.63
792.835	-16.9
793.021	-8.7
793.207	108.03
793.393	132.61
793.58	202.24
793.766	5010.87
793.952	13794.61
794.138	22328.49
794.324	27198.56
794.51	25044.1
794.696	16018.7
794.882	12252.49
795.069	9704.81
795.255	6782.36
795.441	2500.06
795.627	2579.93
795.813	472.57
795.999	374.27
796.185	105.98
796.371	171.52
796.557	42.5
796.743	93.69
796.929	-33.28
797.115	-27.14
797.3	-6.66
797.486	7.68
797.672	65.02
797.858	-4.61
798.044	44.54
798.23	-51.71
798.416	-39.42
798.602	19.97
798.788	-82.43
798.973	-82.43
799.159	169.47
799.345	28.16
799.531	300.54
799.717	1865.19
799.902	7263.63
800.088	15703.31
800.274	15009.05
800.46	14034.22
800.645	22203.57
800.831	32484.37
801.017	28441.68
801.202	22195.37
801.388	20303.05
801.574	15273.24
801.759	8856.95
801.945	7851.4
802.131	5221.81
802.316	2766.29
802.502	822.77
802.687	636.41
802.873	79.36
803.058	56.83
803.244	120.32
803.43	-31.23
803.615	24.06
803.801	89.6
803.986	-12.8
804.172	-119.29
804.357	79.36
804.543	54.78
804.728	13.82
804.913	-35.33
805.099	56.83
805.284	-53.76
805.47	148.99
805.655	-76.29
805.84	75.26
806.026	-57.86
806.211	-0.51
806.397	34.3
806.582	56.83
806.767	93.69
806.953	71.17
807.138	69.12
807.323	50.69
807.508	-47.62
807.694	75.26
807.879	142.85
808.064	-41.47
808.249	42.5
808.435	89.6
808.62	577.02
808.805	785.91
808.99	2293.21
809.175	5529
809.361	10583.39
809.546	15469.84
809.731	29172.8
809.916	41499.53
810.101	37313.48
810.286	31607.84
810.471	37690.3
810.656	43733.86
810.841	49724.17
811.026	59431.54
811.211	64373.29
811.396	58491.52
811.581	46109.5
811.766	42046.33
811.951	38226.87
812.136	28519.5
812.321	23096.48
812.506	20546.76
812.691	17126.65
812.876	12004.68
813.061	10241.38
813.246	8134.02
813.431	5719.46
813.616	2442.71
813.801	2393.56
813.986	1342.96
814.17	413.18
814.355	50.69
814.54	151.04
814.725	22.02
814.91	65.02
815.094	71.17
815.279	-33.28
815.464	40.45
815.649	114.17
815.833	83.45
816.018	-45.57
816.203	60.93
816.388	73.21
816.572	75.26
816.757	15.87
816.942	54.78
817.126	-51.71
817.311	67.07
817.496	58.88
817.68	-2.56
817.865	62.98
818.049	52.74
818.234	99.84
818.419	-4.61
818.603	13.82
818.788	-68.09
818.972	38.4
819.157	-70.14
819.341	-2.56
819.526	48.64
819.71	83.45
819.895	-47.62
820.079	22.02
820.264	-45.57
820.448	9.73
820.633	15.87
820.817	-33.28
821.001	-31.23
821.186	-4.61
821.37	-18.94
821.554	30.21
821.739	38.4
821.923	226.81
822.108	46.59
822.292	34.3
822.476	-45.57
822.66	-37.38
822.845	5.63
823.029	58.88
823.213	58.88
823.398	1.54
823.582	-25.09
823.766	26.11
823.95	-16.9
824.134	36.35
824.319	-113.15
824.503	62.98
824.687	30.21
824.871	-0.51
825.055	58.88
825.239	48.64
825.423	-8.7
825.608	97.79
825.792	677.37
825.976	6469.02
826.16	12791.1
826.344	15942.92
826.528	11328.85
826.712	8390.02
826.896	5078.45
827.08	4656.57
827.264	1424.87
827.448	806.39
827.632	251.39
827.816	163.33
828	-53.76
828.184	11.78
828.368	77.31
828.552	50.69
828.736	-37.38
828.919	122.37
829.103	71.17
829.287	71.17
829.471	22.02
829.655	19.97
829.839	56.83
830.023	-0.51
830.206	48.64
830.39	-10.75
830.574	-8.7
830.758	-23.04
830.941	17.92
831.125	-2.56
831.309	108.03
831.493	-20.99
831.676	56.83
831.86	-39.42
832.044	83.45
832.227	83.45
832.411	26.11
832.595	105.98
832.778	110.08
832.962	19.97
833.146	-20.99
833.329	-18.94
833.513	24.06
833.696	28.16
833.88	24.06
834.064	34.3
834.247	54.78
834.431	36.35
834.614	50.69
834.798	-94.72
834.981	24.06
835.165	36.35
835.348	44.54
835.532	108.03
835.715	93.69
835.898	-0.51
836.082	15.87
836.265	24.06
836.449	60.93
836.632	-10.75
836.815	34.3
836.999	30.21
837.182	81.41
837.365	60.93
837.549	-12.8
837.732	-64
837.915	67.07
838.099	-18.94
838.282	-43.52
838.465	-113.15
838.648	46.59
838.832	19.97
839.015	-92.67
839.198	-119.29
839.381	40.45
839.565	46.59
839.748	65.02
839.931	296.44
840.114	2311.64
840.297	6884.76
840.48	12995.9
840.663	22000.82
840.847	25683.06
841.03	23413.91
841.213	18859.23
841.396	17317.11
841.579	15779.09
841.762	15521.04
841.945	15260.95
842.128	20679.88
842.311	28800.07
842.494	31527.97
842.677	25998.45
842.86	22291.63
843.043	19076.32
843.226	15686.93
843.409	10808.67
843.592	8451.46
843.775	5477.8
843.958	3857.86
844.141	1961.44
844.323	1058.29
844.506	105.98
844.689	85.5
844.872	26.11
845.055	46.59
845.238	69.12
845.42	3.58
845.603	124.41
845.786	67.07
845.969	-78.33
846.152	79.36
846.334	-39.42
846.517	32.26
846.7	48.64
846.883	9.73
847.065	-2.56
847.248	36.35
847.431	60.93
847.613	112.13
847.796	93.69
847.979	-53.76
848.161	120.32
848.344	15.87
848.526	30.21
848.709	-39.42
848.892	7.68
849.074	-33.28
849.257	3.58
849.439	-92.67
849.622	-31.23
849.804	-70.14
849.987	30.21
850.169	19.97
850.352	15.87
850.534	-16.9
850.717	93.69
850.899	38.4
851.082	7.68
851.264	13.82
851.446	-78.33
851.629	15.87
851.811	1.54
851.994	974.32
852.176	4752.82
852.358	7363.98
852.541	4928.95
852.723	3622.34
852.905	1574.38
853.088	785.91
853.27	67.07
853.452	50.69
853.635	79.36
853.817	32.26
853.999	-23.04
854.181	-57.86
854.363	11.78
854.546	-92.67
854.728	42.5
854.91	24.06
855.092	95.74
855.274	-76.29
855.457	105.98
855.639	42.5
855.821	-43.52
856.003	3.58
856.185	1.54
856.367	-41.47
856.549	38.4
856.731	-113.15
856.913	34.3
857.095	-76.29
857.277	-37.38
857.459	67.07
857.641	-68.09
857.823	-29.18
858.005	46.59
858.187	-2.56
858.369	-31.23
858.551	3.58
858.733	81.41
858.915	-45.57
859.097	-74.24
859.279	-33.28
859.461	-20.99
859.643	40.45
859.824	32.26
860.006	-25.09
860.188	89.6
860.37	-82.43
860.552	26.11
860.734	13.82
860.915	-14.85
861.097	30.21
861.279	34.3
861.461	-41.47
861.642	40.45
861.824	-39.42
862.006	-6.66
862.188	-0.51
862.369	-2.56
862.551	40.45
862.733	3.58
862.914	22.02
863.096	-37.38
863.278	-10.75
863.459	-2.56
863.641	-29.18
863.822	126.46
864.004	13.82
864.185	-10.75
864.367	-74.24
864.549	-55.81
864.73	52.74
864.912	-98.81
865.093	-74.24
865.275	40.45
865.456	-16.9
865.638	15.87
865.819	36.35
866.001	-47.62
866.182	-2.56
866.363	9.73
866.545	36.35
866.726	-109.05
866.908	-49.66
867.089	34.3
867.27	44.54
867.452	142.85
867.633	34.3
867.814	-14.85
867.996	91.65
868.177	73.21
868.358	-31.23
868.54	103.93
868.721	-33.28
868.902	32.26
869.083	-86.53
869.265	3.58
869.446	32.26
869.627	52.74
869.808	73.21
869.989	40.45
870.171	-66.05
870.352	-18.94
870.533	48.64
870.714	-27.14
870.895	46.59
871.076	-31.23
871.257	-55.81
871.438	-119.29
871.619	-8.7
871.801	-82.43
871.982	-94.72
872.163	26.11
872.344	15.87
872.525	-20.99
872.706	-25.09
872.887	103.93
873.068	7.68
873.249	-12.8
873.43	-43.52
873.61	1.54
873.791	36.35
873.972	-68.09
874.153	7.68
874.334	114.17
874.515	-78.33
874.696	-20.99
874.877	26.11
875.058	-57.86
875.238	34.3
875.419	146.94
875.6	30.21
875.781	-59.9
875.962	-51.71
876.142	52.74
876.323	-47.62
876.504	108.03
876.685	9.73
876.865	22.02
877.046	-39.42
877.227	138.75
877.407	26.11
877.588	-66.05
877.769	-104.96
877.949	-43.52
878.13	42.5
878.311	-66.05
878.491	-23.04
878.672	120.32
878.853	56.83
879.033	48.64
879.214	34.3
879.394	42.5
879.575	50.69
879.755	40.45
879.936	-4.61
880.116	128.51
880.297	-55.81
880.477	-6.66
880.658	-18.94
880.838	73.21
881.019	-35.33
881.199	116.22
881.38	-45.57
881.56	58.88
881.74	38.4
881.921	13.82
882.101	75.26
882.281	7.68
882.462	1.54
882.642	62.98
882.822	-70.14
883.003	-39.42
883.183	-14.85
883.363	26.11
883.544	44.54
883.724	79.36
883.904	-2.56
884.084	19.97
884.265	15.87
884.445	-84.48
884.625	-10.75
884.805	-39.42
884.985	-76.29
885.166	-8.7
885.346	-37.38
885.526	-6.66
885.706	-2.56
885.886	-47.62
886.066	-12.8
886.246	-2.56
886.426	83.45
886.606	11.78
886.787	60.93
886.967	40.45
887.147	46.59
887.327	56.83
887.507	-6.66
887.687	83.45
887.867	-115.2
888.047	97.79
888.227	34.3
888.406	24.06
888.586	-41.47
888.766	36.35
888.946	62.98
889.126	-25.09
889.306	-90.62
889.486	-86.53
889.666	-37.38
889.846	-33.28
890.025	-64
890.205	40.45
890.385	50.69
890.565	128.51
890.745	3.58
890.924	-25.09
891.104	15.87
891.284	1.54
891.464	-14.85
891.643	-59.9
891.823	-31.23
892.003	-47.62
892.183	5.63
892.362	52.74
892.542	116.22
892.722	-43.52
892.901	-27.14
893.081	32.26
893.26	5.63
893.44	-27.14
893.62	-43.52
893.799	73.21
893.979	-78.33
894.158	-18.94
894.338	30.21
894.517	116.22
894.697	-76.29
894.877	1.54
895.056	-68.09
895.236	-4.61
895.415	-92.67
895.594	75.26
895.774	-8.7
895.953	-78.33
896.133	44.54
896.312	-86.53
896.492	11.78
896.671	38.4
896.85	7.68
897.03	93.69
897.209	-0.51
897.388	-57.86
897.568	13.82
897.747	40.45
897.926	11.78
898.106	-12.8
898.285	-51.71
898.464	54.78
898.643	-43.52
898.823	144.89
899.002	-39.42
899.181	-51.71
899.36	71.17
899.54	75.26
899.719	-115.2
899.898	42.5
900.077	-80.38
900.256	-49.66
900.435	17.92
900.614	34.3
900.794	19.97
900.973	-41.47
901.152	-53.76
901.331	65.02
901.51	36.35
901.689	9.73
901.868	60.93
902.047	-0.51
902.226	173.57
902.405	-0.51
902.584	-61.95
902.763	-76.29
902.942	-27.14
903.121	50.69
903.3	-41.47
903.479	-16.9
903.658	-31.23
903.837	-2.56
904.015	-41.47
904.194	67.07
904.373	-72.19
904.552	-33.28
904.731	155.13
904.91	120.32
905.089	-78.33
905.267	15.87
905.446	13.82
905.625	-12.8
905.804	30.21
905.982	-55.81
906.161	-131.58
906.34	-59.9
906.519	46.59
906.697	-18.94
906.876	-86.53
907.055	46.59
907.233	44.54
907.412	-27.14
907.591	-29.18
907.769	-47.62
907.948	89.6
908.127	-43.52
908.305	-10.75
908.484	28.16
908.662	34.3
908.841	1.54
909.019	-51.71
909.198	-96.77
909.377	17.92
909.555	54.78
909.734	89.6
909.912	-14.85
910.09	-70.14
910.269	-29.18
910.447	-51.71
910.626	13.82
910.804	52.74
910.983	58.88
911.161	-37.38
911.339	28.16
911.518	-10.75
911.696	-47.62
911.875	52.74
912.053	22.02
912.231	24.06
912.41	-27.14
912.588	50.69
912.766	69.12
912.944	-55.81
913.123	-23.04
913.301	30.21
913.479	1572.33
913.657	5295.54
913.836	5154.23
914.014	3741.13
914.192	2256.35
914.37	863.73
914.548	321.02
914.727	65.02
914.905	22.02
915.083	42.5
915.261	9.73
915.439	38.4
915.617	56.83
915.795	-45.57
915.973	56.83
916.151	19.97
916.329	5.63
916.508	67.07
916.686	62.98
916.864	62.98
917.042	60.93
917.22	60.93
917.398	67.07
917.575	-20.99
917.753	120.32
917.931	30.21
918.109	-70.14
918.287	-4.61
918.465	42.5
918.643	-35.33
918.821	75.26
918.999	-16.9
919.177	46.59
919.354	17.92
919.532	42.5
919.71	71.17
919.888	58.88
920.066	-82.43
920.243	-16.9
920.421	-29.18
920.599	9.73
920.777	44.54
920.954	-51.71
921.132	58.88
921.31	-33.28
921.488	30.21
921.665	81.41
921.843	89.6
922.021	-4.61
922.198	108.03
922.376	50.69
922.553	50.69
922.731	-16.9
922.909	-51.71
923.086	17.92
923.264	-104.96
923.441	-39.42
923.619	-23.04
923.796	62.98
923.974	-6.66
924.152	1.54
924.329	-59.9
924.507	-27.14
924.684	-33.28
924.861	-0.51
925.039	-2.56
925.216	30.21
925.394	103.93
925.571	50.69
925.749	-78.33
925.926	40.45
926.103	-59.9
926.281	22.02
926.458	40.45
926.635	71.17
926.813	46.59
926.99	-55.81
927.167	7.68
927.345	79.36
927.522	-10.75
927.699	-18.94
927.876	17.92
928.054	-86.53
928.231	-27.14
928.408	-23.04
928.585	-14.85
928.763	32.26
928.94	-2.56
929.117	-61.95
929.294	28.16
929.471	1.54
929.648	19.97
929.825	-8.7
930.003	-135.68
930.18	-6.66
930.357	58.88
930.534	9.73
930.711	15.87
930.888	-47.62
931.065	-53.76
931.242	22.02
931.419	69.12
931.596	81.41
931.773	-41.47
931.95	-14.85
932.127	-45.57
932.304	-64
932.481	42.5
932.658	15.87
932.835	-14.85
933.011	3.58
933.188	-27.14
933.365	38.4
933.542	-29.18
933.719	-12.8
933.896	-51.71
934.073	24.06
934.249	93.69
934.426	60.93
934.603	110.08
934.78	-74.24
934.957	-66.05
935.133	-37.38
935.31	34.3
935.487	17.92
935.664	9.73
935.84	19.97
936.017	19.97
936.194	-115.2
936.37	81.41
936.547	26.11
936.724	-61.95
936.9	134.65
937.077	40.45
937.253	-68.09
937.43	79.36
937.607	46.59
937.783	28.16
937.96	108.03
938.136	-4.61
938.313	-33.28
938.489	-2.56
938.666	-23.04
938.842	-29.18
939.019	122.37
939.195	28.16
939.372	-90.62
939.548	-29.18
939.725	-27.14
939.901	-12.8
940.077	81.41
940.254	9.73
940.43	75.26
940.607	-10.75
940.783	24.06
940.959	-0.51
941.136	3.58
941.312	13.82
941.488	52.74
941.665	-25.09
941.841	146.94
942.017	-33.28
942.193	116.22
942.37	24.06
942.546	-16.9
942.722	32.26
942.898	-8.7
943.074	3.58
943.251	17.92
943.427	54.78
943.603	-12.8
943.779	-47.62
943.955	-27.14
944.131	-35.33
944.308	-23.04
944.484	52.74
944.66	19.97
944.836	13.82
945.012	97.79
945.188	32.26
945.364	44.54
945.54	-6.66
945.716	83.45
945.892	-35.33
946.068	77.31
946.244	9.73
946.42	5.63
946.596	50.69
946.772	54.78
946.948	-35.33
947.124	44.54
947.3	48.64
947.475	65.02
947.651	-8.7
947.827	15.87
948.003	-43.52
948.179	-72.19
948.355	91.65
948.531	13.82
948.706	-25.09
948.882	79.36
949.058	-12.8
949.234	-96.77
949.409	15.87
949.585	73.21
949.761	-80.38
949.937	-104.96
950.112	-2.56
950.288	-45.57
950.464	-33.28
950.639	3.58
950.815	-72.19
950.991	69.12
951.166	13.82
951.342	-41.47
951.518	-74.24
951.693	95.74
951.869	38.4
952.044	-27.14
952.22	-25.09
952.395	-61.95
952.571	-33.28
952.747	17.92
952.922	-113.15
953.098	11.78
953.273	-14.85
953.448	7.68
953.624	44.54
953.799	-45.57
953.975	-25.09
954.15	38.4
954.326	15.87
954.501	3.58
954.676	-10.75
954.852	19.97
955.027	-59.9
955.203	79.36
955.378	56.83
955.553	30.21
955.729	-102.91
955.904	52.74
956.079	-18.94
956.254	13.82
956.43	87.55
956.605	17.92
956.78	13.82
956.955	11.78
957.131	-8.7
957.306	-55.81
957.481	95.74
957.656	50.69
957.831	48.64
958.007	-78.33
958.182	-133.63
958.357	36.35
958.532	-18.94
958.707	-64
958.882	-37.38
959.057	75.26
959.232	36.35
959.407	112.13
959.582	36.35
959.757	26.11
959.932	52.74
960.107	24.06
960.282	-6.66
960.457	134.65
960.632	36.35
960.807	7.68
960.982	34.3
961.157	-82.43
961.332	15.87
961.507	5.63
961.682	-18.94
961.857	89.6
962.032	93.69
962.206	65.02
962.381	-18.94
962.556	40.45
962.731	-10.75
962.906	-86.53
963.081	17.92
963.255	5.63
963.43	-66.05
963.605	-35.33
963.78	13.82
963.954	97.79
964.129	32.26
964.304	-66.05
964.479	-68.09
964.653	22.02
964.828	56.83
965.003	38.4
965.177	-82.43
965.352	-12.8
965.526	-29.18
965.701	-74.24
965.876	-29.18
966.05	44.54
966.225	-100.86
966.399	26.11
966.574	30.21
966.748	-12.8
966.923	52.74
967.098	-25.09
967.272	-10.75
967.446	40.45
967.621	32.26
967.795	95.74
967.97	65.02
968.144	32.26
968.319	60.93
968.493	28.16
968.668	38.4
968.842	99.84
969.016	-68.09
969.191	52.74
969.365	-70.14
969.539	62.98
969.714	-49.66
969.888	151.04
970.062	-131.58
970.237	1.54
970.411	73.21
970.585	-59.9
970.759	-61.95
970.934	40.45
971.108	-57.86
971.282	19.97
971.456	-51.71
971.63	-10.75
971.805	-76.29
971.979	-18.94
972.153	-0.51
972.327	-29.18
972.501	-23.04
972.675	60.93
972.849	-137.73
973.024	-4.61
973.198	-59.9
973.372	13.82
973.546	26.11
973.72	-31.23
973.894	28.16
974.068	-43.52
974.242	-31.23
974.416	-4.61
974.59	-107.01
974.764	9.73
974.938	-23.04
975.112	95.74
975.286	-33.28
975.46	46.59
975.633	-66.05
975.807	-25.09
975.981	36.35
976.155	-8.7
976.329	-12.8
976.503	-0.51
976.677	22.02
976.85	-29.18
977.024	9.73
977.198	-8.7
977.372	71.17
977.546	73.21
977.719	-25.09
977.893	17.92
978.067	-14.85
978.241	79.36
978.414	17.92
978.588	-16.9
978.762	5.63
978.935	83.45
979.109	3.58
979.283	9.73
979.456	19.97
979.63	-35.33
979.804	-33.28
979.977	-49.66
980.151	-70.14
980.324	114.17
980.498	60.93
980.671	-51.71
980.845	-37.38
981.018	48.64
981.192	-14.85
981.365	-6.66
981.539	56.83
981.712	-57.86
981.886	-45.57
982.059	-43.52
982.233	1.54
982.406	60.93
982.58	24.06
982.753	-33.28
982.926	-33.28
983.1	73.21
983.273	-23.04
983.446	-88.57
983.62	-14.85
983.793	13.82
983.966	50.69
984.14	15.87
984.313	34.3
984.486	-82.43
984.66	26.11
984.833	46.59
985.006	62.98
985.179	26.11
985.352	-64
985.526	-4.61
985.699	52.74
985.872	17.92
986.045	97.79
986.218	-29.18
986.391	91.65
986.565	54.78
986.738	-45.57
986.911	87.55
987.084	97.79
987.257	-2.56
987.43	-61.95
987.603	-16.9
987.776	-41.47
987.949	40.45
988.122	-74.24
988.295	95.74
988.468	44.54
988.641	-39.42
988.814	15.87
988.987	-27.14
989.16	-88.57
989.333	46.59
989.506	132.61
989.679	-14.85
989.852	-23.04
990.025	-133.63
990.197	40.45
990.37	77.31
990.543	13.82
990.716	-98.81
990.889	11.78
991.062	-12.8
991.234	42.5
991.407	34.3
991.58	30.21
991.753	73.21
991.925	-43.52
992.098	-8.7
992.271	48.64
992.444	-33.28
992.616	-0.51
992.789	30.21
992.962	-72.19
993.134	9.73
993.307	-31.23
993.479	30.21
993.652	69.12
993.825	-4.61
993.997	-37.38
994.17	-16.9
994.342	-25.09
994.515	11.78
994.688	-14.85
994.86	-4.61
995.033	-16.9
995.205	44.54
995.378	-94.72
995.55	-49.66
995.723	3.58
995.895	-2.56
996.067	-2.56
996.24	-0.51
996.412	-45.57
996.585	30.21
996.757	-64
996.929	-6.66
997.102	-6.66
997.274	-14.85
997.447	-29.18
997.619	22.02
997.791	7.68
997.964	24.06
998.136	60.93
998.308	-35.33
998.48	-18.94
998.653	-2.56
998.825	91.65
998.997	-125.44
999.169	19.97
999.342	-88.57
999.514	54.78
999.686	48.64
999.858	1.54
1000.03	26.11
1000.202	-27.14
1000.374	-49.66
1000.547	36.35
1000.719	-0.51
1000.891	9.73
1001.063	15.87
1001.235	-82.43
1001.407	-10.75
1001.579	-4.61
1001.751	-51.71
1001.923	-25.09
1002.095	69.12
1002.267	-78.33
1002.439	-98.81
1002.611	-25.09
1002.783	34.3
1002.955	22.02
1003.127	24.06
1003.299	28.16
1003.471	-45.57
1003.643	-104.96
1003.815	87.55
1003.986	-27.14
1004.158	-8.7
1004.33	-45.57
1004.502	-113.15
1004.674	-66.05
1004.846	-45.57
1005.017	26.11
1005.189	-66.05
1005.361	-41.47
1005.533	67.07
1005.704	54.78
1005.876	69.12
1006.048	17.92
1006.22	-16.9
1006.391	-61.95
1006.563	-35.33
1006.735	-0.51
1006.906	93.69
1007.078	-37.38
1007.25	-31.23
1007.421	81.41
1007.593	-8.7
1007.764	-2.56
1007.936	-43.52
1008.108	-10.75
1008.279	17.92
1008.451	-25.09
1008.622	46.59
1008.794	-64
1008.965	-25.09
1009.137	79.36
1009.308	36.35
1009.48	-61.95
1009.651	36.35
1009.823	-107.01
1009.994	-12.8
1010.165	-16.9
1010.337	58.88
1010.508	-49.66
1010.68	30.21
1010.851	1.54
1011.022	-0.51
1011.194	34.3
1011.365	-2.56
1011.536	67.07
1011.708	34.3
1011.879	28.16
1012.05	13.82
1012.222	69.12
1012.393	24.06
1012.564	-43.52
1012.735	36.35
1012.906	11.78
1013.078	-8.7
1013.249	-53.76
1013.42	-20.99
1013.591	-74.24
1013.762	38.4
1013.934	79.36
1014.105	-59.9
1014.276	-80.38
1014.447	65.02
1014.618	19.97
1014.789	56.83
1014.96	52.74
1015.131	-0.51
1015.302	-29.18
1015.473	-70.14
1015.644	58.88
1015.815	-6.66
1015.986	11.78
1016.157	54.78
1016.328	-61.95
1016.499	-14.85
1016.67	-29.18
1016.841	-115.2
1017.012	-39.42
1017.183	-0.51
1017.354	-6.66
1017.525	-100.86
1017.696	-49.66
1017.867	38.4
1018.037	-35.33
1018.208	65.02
1018.379	75.26
1018.55	-51.71
1018.721	3.58
1018.891	26.11
1019.062	52.74
1019.233	40.45
1019.404	-154.11
1019.574	-6.66
1019.745	-2.56
1019.916	19.97
1020.087	-57.86
1020.257	17.92
1020.428	13.82
1020.599	-10.75
1020.769	48.64
1020.94	87.55
1021.11	44.54
1021.281	-4.61
1021.452	-33.28
1021.622	11.78
1021.793	-20.99
1021.963	40.45
1022.134	7.68
1022.305	13.82
1022.475	-35.33
1022.646	-31.23
1022.816	-35.33
1022.987	-55.81
1023.157	138.75
1023.327	-96.77
1023.498	11.78
1023.668	22.02
1023.839	-76.29
1024.009	62.98
1024.18	30.21
1024.35	110.08
1024.52	-33.28
1024.691	-29.18
1024.861	26.11
1025.031	40.45
1025.202	48.64
1025.372	58.88
1025.542	-18.94
1025.713	32.26
1025.883	-8.7
1026.053	79.36
1026.223	87.55
1026.394	-41.47
1026.564	-125.44
1026.734	22.02
1026.904	-55.81
1027.074	-10.75
1027.245	-6.66
1027.415	1.54
1027.585	-16.9
1027.755	-61.95
1027.925	-47.62
1028.095	-37.38
1028.265	5.63
1028.435	-115.2
1028.606	-35.33
1028.776	36.35
1028.946	-76.29
1029.116	48.64
1029.286	-86.53
1029.456	95.74
1029.626	-107.01
1029.796	-59.9
1029.966	157.18
1030.136	-14.85
1030.306	44.54
1030.475	50.69
1030.645	-127.49
1030.815	30.21
1030.985	93.69
1031.155	-25.09
1031.325	1.54
1031.495	69.12
1031.665	65.02
1031.835	11.78
1032.004	34.3
1032.174	54.78
1032.344	-84.48
1032.514	15.87
1032.684	-64
1032.853	42.5
1033.023	-94.72
1033.193	130.56
1033.362	-37.38
1033.532	-37.38
1033.702	-31.23
1033.872	19.97
1034.041	-123.39
1034.211	-6.66
1034.381	-43.52
1034.55	22.02
1034.72	-141.82
1034.889	17.92
1035.059	-16.9
1035.229	81.41
1035.398	44.54
1035.568	17.92
1035.737	-43.52
1035.907	81.41
1036.076	24.06
1036.246	44.54
1036.415	108.03
1036.585	3.58
1036.754	15.87
1036.924	-8.7
1037.093	3.58
1037.263	-33.28
1037.432	-84.48
1037.601	32.26
1037.771	-78.33
1037.94	-16.9
1038.11	-20.99
1038.279	83.45
1038.448	-10.75
1038.618	40.45
1038.787	-0.51
1038.956	-2.56
1039.126	-27.14
1039.295	99.84
1039.464	-33.28
1039.633	-4.61
1039.803	42.5
1039.972	-10.75
1040.141	-51.71
1040.31	-14.85
1040.479	36.35
1040.649	-74.24
1040.818	-113.15
1040.987	24.06
1041.156	-55.81
1041.325	56.83
1041.494	81.41
1041.663	-23.04
1041.833	-100.86
1042.002	-47.62
1042.171	52.74
1042.34	-72.19
1042.509	-35.33
1042.678	-80.38
