Data from LSP81_F4_Subt2_19-22-31-337.txt Node
Date: Mon Aug 21 19:22:31 EDT 2023
User: Emmanuel
Spectrometer: USB4A00615
Scans to average: 1
Trigger mode: 1
Integration Time (sec): 5.000000E-3
Electric dark correction enabled: true
Boxcar width: 0
XAxis mode: Wavelengths
Number of Pixels in Spectrum: 3648
>>>>>Begin Spectral Data<<<<<
346.606	-210.6
346.818	-210.6
347.029	-210.6
347.241	22.87
347.452	92.5
347.664	86.36
347.876	-61.1
348.087	72.02
348.299	-16.04
348.51	-63.15
348.722	102.74
348.933	90.45
349.145	-52.91
349.356	-1.71
349.568	-38.57
349.779	-44.71
349.991	-73.39
350.202	-5.8
350.414	-30.38
350.625	-32.43
350.836	-36.52
351.048	37.2
351.259	-38.57
351.471	59.73
351.682	14.68
351.893	-28.33
352.105	12.63
352.316	-44.71
352.527	-77.48
352.739	-22.19
352.95	-13.99
353.161	-22.19
353.372	72.02
353.584	53.59
353.795	98.64
354.006	41.3
354.217	12.63
354.429	-89.77
354.64	-44.71
354.851	-5.8
355.062	-38.57
355.274	-26.28
355.485	-9.9
355.696	-50.86
355.907	53.59
356.118	-57
356.329	47.44
356.54	10.58
356.752	22.87
356.963	49.49
357.174	67.92
357.385	53.59
357.596	-67.24
357.807	-22.19
358.018	-26.28
358.229	-57
358.44	-83.63
358.651	78.16
358.862	-28.33
359.073	63.83
359.284	72.02
359.495	43.35
359.706	-1.71
359.917	37.2
360.128	53.59
360.339	-65.19
360.55	-36.52
360.761	-16.04
360.972	35.16
361.182	43.35
361.393	-89.77
361.604	45.4
361.815	-83.63
362.026	-28.33
362.237	-9.9
362.447	59.73
362.658	2.39
362.869	-24.23
363.08	-116.39
363.291	35.16
363.501	-28.33
363.712	-63.15
363.923	37.2
364.134	-5.8
364.344	8.53
364.555	-5.8
364.766	22.87
364.976	106.84
365.187	6.49
365.398	22.87
365.608	10.58
365.819	26.96
366.03	22.87
366.24	74.07
366.451	2.39
366.662	90.45
366.872	-30.38
367.083	45.4
367.293	-5.8
367.504	98.64
367.714	-9.9
367.925	20.82
368.135	33.11
368.346	-5.8
368.557	-28.33
368.767	-65.19
368.977	4.44
369.188	31.06
369.398	-26.28
369.609	53.59
369.819	35.16
370.03	-1.71
370.24	35.16
370.451	-32.43
370.661	-40.62
370.871	-3.75
371.082	41.3
371.292	-3.75
371.502	65.88
371.713	59.73
371.923	10.58
372.133	72.02
372.344	-24.23
372.554	-11.95
372.764	-20.14
372.975	-16.04
373.185	-28.33
373.395	4.44
373.605	-100.01
373.816	49.49
374.026	-30.38
374.236	6.49
374.446	-57
374.656	-3.75
374.867	20.82
375.077	-57
375.287	-16.04
375.497	-11.95
375.707	-1.71
375.917	-34.47
376.127	-28.33
376.338	78.16
376.548	33.11
376.758	76.12
376.968	47.44
377.178	-24.23
377.388	-9.9
377.598	10.58
377.808	35.16
378.018	12.63
378.228	53.59
378.438	141.65
378.648	-18.09
378.858	112.98
379.068	33.11
379.278	55.64
379.488	12.63
379.698	61.78
379.908	39.25
380.118	6.49
380.327	57.68
380.537	-91.82
380.747	8.53
380.957	53.59
381.167	-46.76
381.377	88.4
381.587	47.44
381.796	-34.47
382.006	129.36
382.216	-114.34
382.426	-16.04
382.636	59.73
382.845	-40.62
383.055	6.49
383.265	-5.8
383.475	-24.23
383.684	84.31
383.894	-61.1
384.104	31.06
384.313	10.58
384.523	24.92
384.733	55.64
384.942	33.11
385.152	-36.52
385.362	-79.53
385.571	-46.76
385.781	-71.34
385.991	-1.71
386.2	-61.1
386.41	-100.01
386.619	-13.99
386.829	-79.53
387.038	16.73
387.248	-26.28
387.457	-9.9
387.667	-42.67
387.876	-91.82
388.086	-7.85
388.295	22.87
388.505	-16.04
388.714	72.02
388.924	63.83
389.133	12.63
389.343	12.63
389.552	-20.14
389.762	37.2
389.971	63.83
390.18	0.34
390.39	6.49
390.599	4.44
390.808	14.68
391.018	-50.86
391.227	14.68
391.436	-3.75
391.646	-36.52
391.855	-32.43
392.064	24.92
392.274	29.01
392.483	-36.52
392.692	-26.28
392.901	84.31
393.111	-24.23
393.32	-18.09
393.529	98.64
393.738	37.2
393.947	22.87
394.157	49.49
394.366	-108.2
394.575	-40.62
394.784	2.39
394.993	-95.91
395.202	-50.86
395.411	-5.8
395.62	104.79
395.83	14.68
396.039	-30.38
396.248	37.2
396.457	47.44
396.666	2.39
396.875	65.88
397.084	-22.19
397.293	-38.57
397.502	41.3
397.711	4.44
397.92	16.73
398.129	-42.67
398.338	45.4
398.547	-9.9
398.756	26.96
398.965	39.25
399.174	-102.06
399.382	8.53
399.591	-38.57
399.8	76.12
400.009	65.88
400.218	16.73
400.427	20.82
400.636	84.31
400.844	-24.23
401.053	26.96
401.262	14.68
401.471	33.11
401.68	127.32
401.888	-26.28
402.097	-1.71
402.306	31.06
402.515	-95.91
402.723	-9.9
402.932	22.87
403.141	-83.63
403.35	29.01
403.558	-32.43
403.767	-79.53
403.976	6.49
404.184	67.92
404.393	33.11
404.602	-63.15
404.81	86.36
405.019	2.39
405.227	2.39
405.436	-5.8
405.645	53.59
405.853	-34.47
406.062	-13.99
406.27	14.68
406.479	-32.43
406.687	-65.19
406.896	55.64
407.104	59.73
407.313	80.21
407.521	-65.19
407.73	-20.14
407.938	-40.62
408.147	14.68
408.355	117.08
408.563	10.58
408.772	-9.9
408.98	0.34
409.189	139.6
409.397	-40.62
409.605	-34.47
409.814	14.68
410.022	-52.91
410.23	72.02
410.439	-18.09
410.647	-36.52
410.855	-36.52
411.064	137.56
411.272	63.83
411.48	102.74
411.688	-73.39
411.897	-13.99
412.105	-7.85
412.313	-79.53
412.521	47.44
412.73	0.34
412.938	-20.14
413.146	35.16
413.354	61.78
413.562	-44.71
413.77	-9.9
413.979	-26.28
414.187	92.5
414.395	-1.71
414.603	41.3
414.811	104.79
415.019	0.34
415.227	41.3
415.435	-16.04
415.643	-30.38
415.851	-32.43
416.059	-95.91
416.267	-3.75
416.475	31.06
416.683	-77.48
416.891	82.26
417.099	-7.85
417.307	43.35
417.515	-44.71
417.723	82.26
417.931	12.63
418.139	51.54
418.347	0.34
418.555	31.06
418.763	10.58
418.971	-16.04
419.179	-13.99
419.386	-40.62
419.594	110.93
419.802	-5.8
420.01	6.49
420.218	10.58
420.426	47.44
420.633	129.36
420.841	6.49
421.049	-22.19
421.257	53.59
421.464	-36.52
421.672	45.4
421.88	117.08
422.088	59.73
422.295	67.92
422.503	-3.75
422.711	55.64
422.918	-3.75
423.126	-46.76
423.334	-18.09
423.541	-57
423.749	41.3
423.956	69.97
424.164	-9.9
424.372	-97.96
424.579	-122.54
424.787	2.39
424.994	16.73
425.202	29.01
425.409	-22.19
425.617	35.16
425.824	-30.38
426.032	20.82
426.239	47.44
426.447	84.31
426.654	-54.95
426.862	26.96
427.069	-24.23
427.277	55.64
427.484	80.21
427.692	-36.52
427.899	-32.43
428.106	-28.33
428.314	-24.23
428.521	14.68
428.728	6.49
428.936	-38.57
429.143	-50.86
429.351	-48.81
429.558	59.73
429.765	-44.71
429.972	-18.09
430.18	-5.8
430.387	22.87
430.594	20.82
430.801	-28.33
431.009	18.77
431.216	65.88
431.423	-38.57
431.63	-28.33
431.838	4.44
432.045	-30.38
432.252	6.49
432.459	65.88
432.666	4.44
432.873	4.44
433.081	47.44
433.288	43.35
433.495	-57
433.702	-5.8
433.909	26.96
434.116	47.44
434.323	98.64
434.53	90.45
434.737	12.63
434.944	119.12
435.151	18.77
435.358	-26.28
435.565	29.01
435.772	-87.72
435.979	-32.43
436.186	61.78
436.393	-11.95
436.6	-9.9
436.807	4.44
437.014	59.73
437.221	12.63
437.428	-61.1
437.635	65.88
437.841	53.59
438.048	84.31
438.255	16.73
438.462	92.5
438.669	-38.57
438.876	12.63
439.082	45.4
439.289	-75.43
439.496	-52.91
439.703	-93.87
439.91	49.49
440.116	53.59
440.323	102.74
440.53	43.35
440.737	-38.57
440.943	29.01
441.15	63.83
441.357	47.44
441.563	26.96
441.77	67.92
441.977	18.77
442.183	29.01
442.39	-1.71
442.597	-16.04
442.803	65.88
443.01	14.68
443.216	53.59
443.423	92.5
443.63	63.83
443.836	51.54
444.043	76.12
444.249	94.55
444.456	-52.91
444.662	12.63
444.869	-57
445.075	12.63
445.282	-26.28
445.488	-5.8
445.695	35.16
445.901	33.11
446.107	-34.47
446.314	143.7
446.52	84.31
446.727	33.11
446.933	-28.33
447.139	-18.09
447.346	-77.48
447.552	98.64
447.759	35.16
447.965	-32.43
448.171	6.49
448.378	55.64
448.584	74.07
448.79	59.73
448.996	-54.95
449.203	6.49
449.409	33.11
449.615	18.77
449.821	67.92
450.028	16.73
450.234	94.55
450.44	-32.43
450.646	-26.28
450.852	20.82
451.059	41.3
451.265	76.12
451.471	0.34
451.677	137.56
451.883	2.39
452.089	104.79
452.295	-18.09
452.502	-26.28
452.708	119.12
452.914	-65.19
453.12	-61.1
453.326	-18.09
453.532	45.4
453.738	-7.85
453.944	-11.95
454.15	74.07
454.356	12.63
454.562	-44.71
454.768	-44.71
454.974	55.64
455.18	-91.82
455.386	37.2
455.592	-20.14
455.798	125.27
456.003	-26.28
456.209	-79.53
456.415	106.84
456.621	14.68
456.827	57.68
457.033	24.92
457.239	-42.67
457.444	-26.28
457.65	61.78
457.856	12.63
458.062	-40.62
458.268	65.88
458.473	-85.67
458.679	-13.99
458.885	4.44
459.091	20.82
459.296	-24.23
459.502	-9.9
459.708	-16.04
459.914	-48.81
460.119	12.63
460.325	-67.24
460.531	-3.75
460.736	-89.77
460.942	61.78
461.147	-42.67
461.353	-26.28
461.559	72.02
461.764	-93.87
461.97	94.55
462.175	37.2
462.381	41.3
462.587	88.4
462.792	4.44
462.998	61.78
463.203	-97.96
463.409	-48.81
463.614	-52.91
463.82	-3.75
464.025	117.08
464.231	49.49
464.436	-9.9
464.641	-30.38
464.847	-22.19
465.052	-93.87
465.258	106.84
465.463	65.88
465.669	-9.9
465.874	-20.14
466.079	67.92
466.285	-50.86
466.49	18.77
466.695	53.59
466.901	-16.04
467.106	121.17
467.311	43.35
467.516	-13.99
467.722	41.3
467.927	-63.15
468.132	24.92
468.338	-28.33
468.543	18.77
468.748	-9.9
468.953	43.35
469.158	-46.76
469.364	-34.47
469.569	31.06
469.774	110.93
469.979	-42.67
470.184	-40.62
470.389	22.87
470.594	-40.62
470.8	55.64
471.005	-52.91
471.21	-54.95
471.415	-48.81
471.62	24.92
471.825	39.25
472.03	49.49
472.235	90.45
472.44	-11.95
472.645	55.64
472.85	-46.76
473.055	53.59
473.26	-38.57
473.465	-11.95
473.67	-42.67
473.875	82.26
474.08	123.22
474.285	22.87
474.49	33.11
474.695	-42.67
474.899	6.49
475.104	72.02
475.309	31.06
475.514	0.34
475.719	22.87
475.924	121.17
476.128	33.11
476.333	-44.71
476.538	-59.05
476.743	-1.71
476.948	88.4
477.152	94.55
477.357	47.44
477.562	74.07
477.767	-38.57
477.971	-5.8
478.176	-36.52
478.381	14.68
478.585	-77.48
478.79	0.34
478.995	-57
479.199	43.35
479.404	102.74
479.609	-134.82
479.813	61.78
480.018	-52.91
480.223	0.34
480.427	45.4
480.632	-24.23
480.836	74.07
481.041	90.45
481.245	37.2
481.45	-24.23
481.654	22.87
481.859	-42.67
482.063	141.65
482.268	88.4
482.472	-26.28
482.677	2.39
482.881	-1.71
483.086	-122.54
483.29	106.84
483.495	88.4
483.699	112.98
483.903	41.3
484.108	14.68
484.312	12.63
484.517	108.88
484.721	-7.85
484.925	51.54
485.13	35.16
485.334	20.82
485.538	69.97
485.743	69.97
485.947	125.27
486.151	37.2
486.355	57.68
486.56	67.92
486.764	29.01
486.968	-18.09
487.172	-71.34
487.377	59.73
487.581	4.44
487.785	143.7
487.989	244.05
488.193	98.64
488.397	8.53
488.602	59.73
488.806	190.8
489.01	45.4
489.214	74.07
489.418	174.42
489.622	22.87
489.826	149.84
490.03	72.02
490.234	215.38
490.438	45.4
490.642	123.22
490.846	37.2
491.05	133.46
491.254	4.44
491.458	96.6
491.662	151.89
491.866	112.98
492.07	108.88
492.274	110.93
492.478	131.41
492.682	4.44
492.886	121.17
493.09	108.88
493.294	127.32
493.498	65.88
493.701	129.36
493.905	-34.47
494.109	108.88
494.313	80.21
494.517	92.5
494.721	119.12
494.924	106.84
495.128	39.25
495.332	22.87
495.536	10.58
495.739	74.07
495.943	0.34
496.147	147.8
496.351	131.41
496.554	106.84
496.758	41.3
496.962	55.64
497.165	57.68
497.369	172.37
497.573	149.84
497.776	172.37
497.98	69.97
498.184	129.36
498.387	125.27
498.591	74.07
498.794	-38.57
498.998	176.47
499.202	88.4
499.405	33.11
499.609	18.77
499.812	82.26
500.016	29.01
500.219	22.87
500.423	125.27
500.626	47.44
500.83	190.8
501.033	225.62
501.237	-1.71
501.44	129.36
501.643	-116.39
501.847	55.64
502.05	41.3
502.254	160.08
502.457	10.58
502.66	172.37
502.864	47.44
503.067	-13.99
503.271	74.07
503.474	74.07
503.677	49.49
503.88	106.84
504.084	115.03
504.287	35.16
504.49	63.83
504.694	127.32
504.897	162.13
505.1	276.82
505.303	59.73
505.507	133.46
505.71	110.93
505.913	121.17
506.116	-7.85
506.319	227.67
506.522	67.92
506.726	6.49
506.929	18.77
507.132	121.17
507.335	102.74
507.538	119.12
507.741	221.52
507.944	59.73
508.147	16.73
508.35	178.51
508.553	14.68
508.756	-69.29
508.959	188.75
509.163	231.76
509.366	108.88
509.569	63.83
509.771	35.16
509.974	37.2
510.177	125.27
510.38	141.65
510.583	125.27
510.786	237.91
510.989	100.69
511.192	94.55
511.395	-1.71
511.598	31.06
511.801	69.97
512.004	289.1
512.206	-28.33
512.409	166.23
512.612	51.54
512.815	35.16
513.018	78.16
513.22	186.71
513.423	143.7
513.626	133.46
513.829	112.98
514.032	84.31
514.234	141.65
514.437	143.7
514.64	170.32
514.842	155.99
515.045	65.88
515.248	170.32
515.45	98.64
515.653	24.92
515.856	24.92
516.058	143.7
516.261	84.31
516.464	129.36
516.666	49.49
516.869	55.64
517.071	160.08
517.274	158.03
517.477	102.74
517.679	229.71
517.882	110.93
518.084	256.34
518.287	280.91
518.489	190.8
518.692	223.57
518.894	104.79
519.097	112.98
519.299	227.67
519.501	201.04
519.704	463.18
519.906	135.51
520.109	248.15
520.311	61.78
520.514	338.26
520.716	129.36
520.918	127.32
521.121	328.02
521.323	377.17
521.525	131.41
521.728	155.99
521.93	125.27
522.132	387.41
522.335	311.63
522.537	440.65
522.739	141.65
522.941	215.38
523.144	250.19
523.346	104.79
523.548	135.51
523.75	166.23
523.952	180.56
524.155	229.71
524.357	69.97
524.559	250.19
524.761	174.42
524.963	201.04
525.165	127.32
525.368	350.54
525.57	139.6
525.772	508.24
525.974	362.83
526.176	172.37
526.378	158.03
526.58	121.17
526.782	51.54
526.984	213.33
527.186	155.99
527.388	178.51
527.59	57.68
527.792	160.08
527.994	168.27
528.196	223.57
528.398	-22.19
528.6	174.42
528.802	57.68
529.004	-22.19
529.206	24.92
529.408	340.3
529.609	198.99
529.811	348.5
530.013	76.12
530.215	207.19
530.417	102.74
530.619	82.26
530.821	119.12
531.022	162.13
531.224	59.73
531.426	371.02
531.628	235.86
531.829	309.58
532.031	82.26
532.233	-1.71
532.435	135.51
532.636	24.92
532.838	153.94
533.04	92.5
533.241	151.89
533.443	276.82
533.645	207.19
533.846	112.98
534.048	33.11
534.25	86.36
534.451	37.2
534.653	100.69
534.855	57.68
535.056	158.03
535.258	190.8
535.459	366.93
535.661	45.4
535.862	219.47
536.064	172.37
536.265	41.3
536.467	92.5
536.668	10.58
536.87	155.99
537.071	59.73
537.273	119.12
537.474	215.38
537.676	12.63
537.877	53.59
538.078	61.78
538.28	16.73
538.481	176.47
538.683	61.78
538.884	84.31
539.085	29.01
539.287	115.03
539.488	115.03
539.689	2.39
539.891	205.14
540.092	-36.52
540.293	65.88
540.495	106.84
540.696	102.74
540.897	96.6
541.098	24.92
541.3	12.63
541.501	0.34
541.702	6.49
541.903	12.63
542.104	98.64
542.306	-57
542.507	106.84
542.708	143.7
542.909	108.88
543.11	143.7
543.311	-7.85
543.512	164.18
543.713	-20.14
543.915	182.61
544.116	160.08
544.317	8.53
544.518	61.78
544.719	53.59
544.92	-40.62
545.121	26.96
545.322	88.4
545.523	35.16
545.724	84.31
545.925	221.52
546.126	-9.9
546.327	117.08
546.528	100.69
546.729	41.3
546.929	51.54
547.13	84.31
547.331	104.79
547.532	74.07
547.733	119.12
547.934	-16.04
548.135	86.36
548.336	20.82
548.536	155.99
548.737	135.51
548.938	76.12
549.139	72.02
549.34	-52.91
549.54	119.12
549.741	133.46
549.942	104.79
550.143	-5.8
550.343	211.28
550.544	135.51
550.745	-24.23
550.945	94.55
551.146	94.55
551.347	92.5
551.547	76.12
551.748	39.25
551.949	33.11
552.149	162.13
552.35	14.68
552.551	51.54
552.751	219.47
552.952	-26.28
553.152	-54.95
553.353	86.36
553.553	39.25
553.754	100.69
553.954	123.22
554.155	24.92
554.356	33.11
554.556	88.4
554.756	158.03
554.957	121.17
555.157	104.79
555.358	55.64
555.558	115.03
555.759	67.92
555.959	47.44
556.159	96.6
556.36	203.09
556.56	82.26
556.761	94.55
556.961	108.88
557.161	22.87
557.362	0.34
557.562	131.41
557.762	-13.99
557.963	106.84
558.163	180.56
558.363	82.26
558.563	-1.71
558.764	317.78
558.964	98.64
559.164	145.75
559.364	239.95
559.565	84.31
559.765	172.37
559.965	117.08
560.165	72.02
560.365	160.08
560.565	35.16
560.766	-1.71
560.966	18.77
561.166	20.82
561.366	14.68
561.566	133.46
561.766	143.7
561.966	26.96
562.166	178.51
562.366	256.34
562.566	14.68
562.766	362.83
562.966	129.36
563.166	188.75
563.366	225.62
563.566	74.07
563.766	37.2
563.966	295.25
564.166	6.49
564.366	82.26
564.566	141.65
564.766	106.84
564.966	65.88
565.166	37.2
565.366	98.64
565.565	182.61
565.765	88.4
565.965	33.11
566.165	121.17
566.365	104.79
566.565	10.58
566.764	135.51
566.964	31.06
567.164	309.58
567.364	137.56
567.564	115.03
567.763	82.26
567.963	57.68
568.163	51.54
568.362	22.87
568.562	-30.38
568.762	-36.52
568.961	39.25
569.161	20.82
569.361	20.82
569.56	129.36
569.76	4.44
569.96	49.49
570.159	-9.9
570.359	35.16
570.558	8.53
570.758	53.59
570.958	65.88
571.157	43.35
571.357	41.3
571.556	155.99
571.756	-44.71
571.955	127.32
572.155	61.78
572.354	74.07
572.554	22.87
572.753	123.22
572.953	143.7
573.152	160.08
573.351	51.54
573.551	166.23
573.75	117.08
573.95	26.96
574.149	-18.09
574.348	194.9
574.548	31.06
574.747	102.74
574.946	180.56
575.146	37.2
575.345	143.7
575.544	29.01
575.744	-38.57
575.943	43.35
576.142	-44.71
576.342	80.21
576.541	74.07
576.74	26.96
576.939	76.12
577.138	18.77
577.338	18.77
577.537	41.3
577.736	8.53
577.935	57.68
578.134	94.55
578.333	35.16
578.533	88.4
578.732	8.53
578.931	-11.95
579.13	45.4
579.329	12.63
579.528	84.31
579.727	-3.75
579.926	43.35
580.125	-61.1
580.324	51.54
580.523	22.87
580.722	-7.85
580.921	63.83
581.12	-22.19
581.319	78.16
581.518	47.44
581.717	6.49
581.916	-3.75
582.115	-11.95
582.314	26.96
582.513	-20.14
582.712	-5.8
582.911	135.51
583.109	67.92
583.308	2.39
583.507	88.4
583.706	55.64
583.905	72.02
584.104	-61.1
584.302	51.54
584.501	2.39
584.7	74.07
584.899	-30.38
585.098	20.82
585.296	-40.62
585.495	-18.09
585.694	96.6
585.892	-73.39
586.091	-65.19
586.29	-13.99
586.488	53.59
586.687	-52.91
586.886	8.53
587.084	143.7
587.283	-16.04
587.482	-122.54
587.68	4.44
587.879	-57
588.077	84.31
588.276	61.78
588.475	8.53
588.673	-18.09
588.872	53.59
589.07	104.79
589.269	41.3
589.467	74.07
589.666	-7.85
589.864	-83.63
590.063	-5.8
590.261	69.97
590.46	59.73
590.658	22.87
590.857	-30.38
591.055	-30.38
591.253	-100.01
591.452	26.96
591.65	-44.71
591.848	-40.62
592.047	53.59
592.245	-9.9
592.444	22.87
592.642	-5.8
592.84	20.82
593.038	72.02
593.237	-3.75
593.435	82.26
593.633	12.63
593.832	-18.09
594.03	59.73
594.228	-69.29
594.426	6.49
594.624	-63.15
594.823	8.53
595.021	24.92
595.219	129.36
595.417	35.16
595.615	49.49
595.813	-9.9
596.012	37.2
596.21	57.68
596.408	35.16
596.606	-13.99
596.804	94.55
597.002	-52.91
597.2	2.39
597.398	35.16
597.596	43.35
597.794	20.82
597.992	14.68
598.19	4.44
598.388	84.31
598.586	-143.02
598.784	-20.14
598.982	26.96
599.18	-73.39
599.378	6.49
599.576	-1.71
599.774	102.74
599.972	29.01
600.17	76.12
600.368	-36.52
600.565	45.4
600.763	-28.33
600.961	-13.99
601.159	8.53
601.357	47.44
601.555	6.49
601.752	12.63
601.95	45.4
602.148	12.63
602.346	67.92
602.544	96.6
602.741	24.92
602.939	-36.52
603.137	14.68
603.334	-38.57
603.532	16.73
603.73	12.63
603.927	86.36
604.125	-5.8
604.323	-3.75
604.52	2.39
604.718	-5.8
604.916	22.87
605.113	-44.71
605.311	63.83
605.508	4.44
605.706	57.68
605.904	-9.9
606.101	4.44
606.299	14.68
606.496	121.17
606.694	29.01
606.891	-28.33
607.089	10.58
607.286	-16.04
607.484	-3.75
607.681	74.07
607.879	-20.14
608.076	-44.71
608.273	80.21
608.471	4.44
608.668	-18.09
608.866	-57
609.063	14.68
609.26	-48.81
609.458	29.01
609.655	-24.23
609.852	26.96
610.05	-138.92
610.247	90.45
610.444	-20.14
610.642	80.21
610.839	35.16
611.036	76.12
611.233	51.54
611.431	6.49
611.628	-7.85
611.825	-52.91
612.022	-63.15
612.22	-48.81
612.417	29.01
612.614	37.2
612.811	-20.14
613.008	72.02
613.205	-106.15
613.402	2.39
613.6	112.98
613.797	-7.85
613.994	-38.57
614.191	61.78
614.388	26.96
614.585	82.26
614.782	14.68
614.979	29.01
615.176	-85.67
615.373	-79.53
615.57	63.83
615.767	45.4
615.964	78.16
616.161	-48.81
616.358	41.3
616.555	61.78
616.752	96.6
616.949	22.87
617.146	31.06
617.343	-52.91
617.539	-73.39
617.736	12.63
617.933	6.49
618.13	8.53
618.327	-34.47
618.524	67.92
618.721	26.96
618.917	-46.76
619.114	-59.05
619.311	10.58
619.508	-85.67
619.704	-1.71
619.901	-16.04
620.098	55.64
620.295	39.25
620.491	4.44
620.688	29.01
620.885	-34.47
621.081	-63.15
621.278	33.11
621.475	-36.52
621.671	31.06
621.868	69.97
622.065	61.78
622.261	-16.04
622.458	59.73
622.655	29.01
622.851	92.5
623.048	29.01
623.244	-116.39
623.441	-34.47
623.637	20.82
623.834	-26.28
624.03	-85.67
624.227	-63.15
624.423	-9.9
624.62	49.49
624.816	43.35
625.013	20.82
625.209	-22.19
625.406	26.96
625.602	47.44
625.798	-26.28
625.995	123.22
626.191	-30.38
626.388	35.16
626.584	-24.23
626.78	-79.53
626.977	0.34
627.173	43.35
627.369	29.01
627.566	76.12
627.762	57.68
627.958	-34.47
628.154	-28.33
628.351	53.59
628.547	18.77
628.743	14.68
628.939	-44.71
629.136	18.77
629.332	41.3
629.528	112.98
629.724	-30.38
629.92	18.77
630.116	4.44
630.313	26.96
630.509	10.58
630.705	49.49
630.901	33.11
631.097	37.2
631.293	10.58
631.489	-44.71
631.685	88.4
631.881	-57
632.077	39.25
632.273	37.2
632.469	-20.14
632.665	4.44
632.861	12.63
633.057	65.88
633.253	6.49
633.449	-5.8
633.645	76.12
633.841	-65.19
634.037	31.06
634.233	74.07
634.429	-13.99
634.625	26.96
634.821	178.51
635.017	24.92
635.212	-46.76
635.408	69.97
635.604	-20.14
635.8	-20.14
635.996	22.87
636.191	16.73
636.387	0.34
636.583	80.21
636.779	6.49
636.975	-69.29
637.17	2.39
637.366	-11.95
637.562	82.26
637.757	94.55
637.953	10.58
638.149	-36.52
638.345	-65.19
638.54	-3.75
638.736	-77.48
638.931	14.68
639.127	-36.52
639.323	76.12
639.518	22.87
639.714	67.92
639.909	55.64
640.105	-87.72
640.301	2.39
640.496	74.07
640.692	-9.9
640.887	90.45
641.083	-46.76
641.278	-22.19
641.474	-24.23
641.669	-61.1
641.865	10.58
642.06	72.02
642.256	-89.77
642.451	-52.91
642.646	-46.76
642.842	76.12
643.037	12.63
643.233	92.5
643.428	-22.19
643.623	35.16
643.819	22.87
644.014	33.11
644.209	72.02
644.405	43.35
644.6	-40.62
644.795	78.16
644.99	-104.11
645.186	4.44
645.381	-40.62
645.576	82.26
645.771	-46.76
645.967	12.63
646.162	26.96
646.357	94.55
646.552	-104.11
646.747	16.73
646.943	84.31
647.138	29.01
647.333	86.36
647.528	-42.67
647.723	39.25
647.918	90.45
648.113	63.83
648.308	33.11
648.504	2.39
648.699	10.58
648.894	-16.04
649.089	-5.8
649.284	-18.09
649.479	55.64
649.674	-1.71
649.869	-22.19
650.064	26.96
650.259	0.34
650.454	-30.38
650.649	-13.99
650.844	-71.34
651.038	51.54
651.233	65.88
651.428	-5.8
651.623	4.44
651.818	108.88
652.013	-1.71
652.208	61.78
652.403	104.79
652.597	-11.95
652.792	94.55
652.987	117.08
653.182	-38.57
653.377	12.63
653.571	-93.87
653.766	-48.81
653.961	49.49
654.156	22.87
654.35	41.3
654.545	74.07
654.74	-32.43
654.935	-30.38
655.129	18.77
655.324	-30.38
655.519	16.73
655.713	29.01
655.908	29.01
656.102	-16.04
656.297	-22.19
656.492	20.82
656.686	43.35
656.881	-5.8
657.075	100.69
657.27	-11.95
657.464	22.87
657.659	35.16
657.854	12.63
658.048	90.45
658.243	72.02
658.437	-18.09
658.631	-112.3
658.826	4.44
659.02	4.44
659.215	24.92
659.409	-24.23
659.604	16.73
659.798	-73.39
659.992	61.78
660.187	41.3
660.381	-5.8
660.576	-40.62
660.77	-65.19
660.964	63.83
661.159	4.44
661.353	65.88
661.547	20.82
661.742	-5.8
661.936	2.39
662.13	14.68
662.324	-28.33
662.519	-1.71
662.713	-3.75
662.907	84.31
663.101	45.4
663.295	-20.14
663.49	-18.09
663.684	67.92
663.878	-93.87
664.072	24.92
664.266	-28.33
664.46	24.92
664.654	-61.1
664.849	-79.53
665.043	137.56
665.237	26.96
665.431	24.92
665.625	98.64
665.819	86.36
666.013	-81.58
666.207	-24.23
666.401	-110.25
666.595	-16.04
666.789	8.53
666.983	-13.99
667.177	-69.29
667.371	0.34
667.565	4.44
667.759	8.53
667.953	12.63
668.147	33.11
668.34	94.55
668.534	-59.05
668.728	-3.75
668.922	74.07
669.116	76.12
669.31	0.34
669.504	-38.57
669.697	106.84
669.891	67.92
670.085	37.2
670.279	24.92
670.473	127.32
670.666	6.49
670.86	26.96
671.054	72.02
671.248	-22.19
671.441	-48.81
671.635	-26.28
671.829	-65.19
672.022	43.35
672.216	-110.25
672.41	-40.62
672.603	-61.1
672.797	-7.85
672.99	-48.81
673.184	-81.58
673.378	6.49
673.571	82.26
673.765	-57
673.958	-7.85
674.152	-34.47
674.345	29.01
674.539	78.16
674.733	35.16
674.926	26.96
675.12	-81.58
675.313	0.34
675.506	-30.38
675.7	76.12
675.893	-30.38
676.087	-11.95
676.28	-91.82
676.474	51.54
676.667	22.87
676.86	-11.95
677.054	-44.71
677.247	110.93
677.441	-44.71
677.634	49.49
677.827	-22.19
678.02	-18.09
678.214	65.88
678.407	14.68
678.6	-46.76
678.794	96.6
678.987	18.77
679.18	12.63
679.373	-100.01
679.567	16.73
679.76	-1.71
679.953	10.58
680.146	-93.87
680.339	-1.71
680.533	-20.14
680.726	45.4
680.919	-36.52
681.112	29.01
681.305	-9.9
681.498	4.44
681.691	72.02
681.884	-46.76
682.077	145.75
682.271	22.87
682.464	-71.34
682.657	10.58
682.85	53.59
683.043	-22.19
683.236	18.77
683.429	-3.75
683.622	88.4
683.815	6.49
684.008	129.36
684.201	-24.23
684.393	-1.71
684.586	-20.14
684.779	-9.9
684.972	-16.04
685.165	84.31
685.358	-20.14
685.551	37.2
685.744	65.88
685.937	4.44
686.129	20.82
686.322	26.96
686.515	-108.2
686.708	-61.1
686.901	-5.8
687.093	-77.48
687.286	4.44
687.479	-11.95
687.672	53.59
687.864	-38.57
688.057	-5.8
688.25	-3.75
688.442	78.16
688.635	31.06
688.828	6.49
689.02	-22.19
689.213	-22.19
689.406	-11.95
689.598	-38.57
689.791	-93.87
689.984	65.88
690.176	2.39
690.369	10.58
690.561	-69.29
690.754	22.87
690.946	-46.76
691.139	12.63
691.331	-5.8
691.524	-24.23
691.716	33.11
691.909	-18.09
692.101	37.2
692.294	22.87
692.486	-50.86
692.679	-34.47
692.871	78.16
693.063	14.68
693.256	72.02
693.448	8.53
693.641	-79.53
693.833	-63.15
694.025	18.77
694.218	67.92
694.41	14.68
694.602	-112.3
694.795	29.01
694.987	45.4
695.179	1050.95
695.372	10653.87
695.564	15566.95
695.756	11161.77
695.948	7528.67
696.14	1966.39
696.333	1046.85
696.525	121.17
696.717	8.53
696.909	12.63
697.101	-57
697.294	59.73
697.486	41.3
697.678	-46.76
697.87	-77.48
698.062	18.77
698.254	-11.95
698.446	-167.59
698.638	26.96
698.83	6.49
699.022	80.21
699.215	24.92
699.407	-40.62
699.599	-67.24
699.791	-30.38
699.983	37.2
700.175	47.44
700.367	-46.76
700.558	-38.57
700.75	37.2
700.942	104.79
701.134	-59.05
701.326	80.21
701.518	-63.15
701.71	61.78
701.902	-67.24
702.094	74.07
702.286	-7.85
702.477	63.83
702.669	14.68
702.861	-9.9
703.053	14.68
703.245	29.01
703.436	26.96
703.628	-61.1
703.82	-30.38
704.012	57.68
704.203	39.25
704.395	110.93
704.587	-110.25
704.779	-69.29
704.97	-71.34
705.162	18.77
705.354	1487.17
705.545	7682.27
705.737	13584.52
705.929	10297.53
706.12	5308.68
706.312	3201.32
706.503	450.89
706.695	203.09
706.887	61.78
707.078	63.83
707.27	-40.62
707.461	57.68
707.653	-30.38
707.844	41.3
708.036	67.92
708.227	78.16
708.419	-50.86
708.61	18.77
708.802	47.44
708.993	55.64
709.185	-5.8
709.376	39.25
709.567	-24.23
709.759	-71.34
709.95	-7.85
710.141	29.01
710.333	-34.47
710.524	-24.23
710.716	-26.28
710.907	104.79
711.098	59.73
711.289	-16.04
711.481	8.53
711.672	49.49
711.863	-75.43
712.055	94.55
712.246	-34.47
712.437	67.92
712.628	39.25
712.82	-67.24
713.011	-32.43
713.202	63.83
713.393	-3.75
713.584	57.68
713.775	-20.14
713.967	-22.19
714.158	-50.86
714.349	31.06
714.54	8.53
714.731	-26.28
714.922	-38.57
715.113	31.06
715.304	47.44
715.495	6.49
715.686	49.49
715.877	-5.8
716.068	-11.95
716.259	-1.71
716.45	20.82
716.641	-3.75
716.832	24.92
717.023	-9.9
717.214	53.59
717.405	-48.81
717.596	22.87
717.787	80.21
717.978	-138.92
718.169	-34.47
718.36	-36.52
718.55	47.44
718.741	-42.67
718.932	-44.71
719.123	-91.82
719.314	6.49
719.505	86.36
719.695	6.49
719.886	55.64
720.077	90.45
720.268	-3.75
720.458	102.74
720.649	-52.91
720.84	8.53
721.031	-24.23
721.221	2.39
721.412	24.92
721.603	-75.43
721.793	-22.19
721.984	-16.04
722.175	26.96
722.365	14.68
722.556	24.92
722.746	20.82
722.937	2.39
723.128	-67.24
723.318	-44.71
723.509	41.3
723.699	-9.9
723.89	53.59
724.08	4.44
724.271	18.77
724.461	-42.67
724.652	10.58
724.842	-63.15
725.033	86.36
725.223	0.34
725.414	47.44
725.604	24.92
725.794	-59.05
725.985	-46.76
726.175	0.34
726.366	123.22
726.556	102.74
726.746	-61.1
726.937	-54.95
727.127	-24.23
727.317	47.44
727.508	-18.09
727.698	-7.85
727.888	-7.85
728.079	20.82
728.269	-30.38
728.459	65.88
728.649	45.4
728.84	-24.23
729.03	41.3
729.22	-44.71
729.41	20.82
729.6	-36.52
729.791	94.55
729.981	43.35
730.171	67.92
730.361	-22.19
730.551	53.59
730.741	24.92
730.931	108.88
731.121	-93.87
731.311	102.74
731.502	-67.24
731.692	-5.8
731.882	35.16
732.072	-30.38
732.262	-63.15
732.452	-1.71
732.642	55.64
732.832	-93.87
733.022	-13.99
733.212	-16.04
733.402	125.27
733.591	59.73
733.781	149.84
733.971	76.12
734.161	67.92
734.351	-1.71
734.541	-7.85
734.731	39.25
734.921	20.82
735.111	-32.43
735.3	-11.95
735.49	-95.91
735.68	49.49
735.87	22.87
736.06	47.44
736.249	-40.62
736.439	76.12
736.629	41.3
736.819	35.16
737.008	1126.72
737.198	8141.02
737.388	19861.54
737.577	17698.89
737.767	11552.93
737.957	8472.79
738.146	4094.23
738.336	911.69
738.526	602.44
738.715	84.31
738.905	-28.33
739.094	96.6
739.284	98.64
739.474	-26.28
739.663	12.63
739.853	53.59
740.042	-13.99
740.232	-24.23
740.421	55.64
740.611	86.36
740.8	-7.85
740.99	82.26
741.179	14.68
741.369	47.44
741.558	61.78
741.748	18.77
741.937	61.78
742.126	-28.33
742.316	80.21
742.505	22.87
742.695	-116.39
742.884	47.44
743.073	-30.38
743.263	-11.95
743.452	35.16
743.641	-22.19
743.831	33.11
744.02	37.2
744.209	-206.5
744.398	-97.96
744.588	14.68
744.777	14.68
744.966	-3.75
745.155	0.34
745.345	-100.01
745.534	82.26
745.723	-32.43
745.912	-85.67
746.101	94.55
746.29	51.54
746.48	24.92
746.669	24.92
746.858	16.73
747.047	-13.99
747.236	22.87
747.425	55.64
747.614	92.5
747.803	-50.86
747.992	12.63
748.181	35.16
748.37	61.78
748.559	31.06
748.748	-7.85
748.937	31.06
749.126	674.12
749.315	3737.88
749.504	10633.4
749.693	14643.32
749.882	9369.8
750.071	9029.84
750.26	12052.64
750.449	12884.11
750.638	21149.71
750.826	18784.31
751.015	10840.24
751.204	8589.52
751.393	6011.13
751.582	1298.75
751.771	1134.92
751.959	141.65
752.148	100.69
752.337	151.89
752.526	-63.15
752.714	-67.24
752.903	-126.63
753.092	16.73
753.281	0.34
753.469	-30.38
753.658	-36.52
753.847	65.88
754.035	-91.82
754.224	61.78
754.413	8.53
754.601	-63.15
754.79	-36.52
754.979	-22.19
755.167	2.39
755.356	-59.05
755.544	-67.24
755.733	16.73
755.921	45.4
756.11	-153.26
756.298	61.78
756.487	20.82
756.675	-26.28
756.864	37.2
757.052	59.73
757.241	-1.71
757.429	88.4
757.618	2.39
757.806	-3.75
757.995	59.73
758.183	-69.29
758.371	-5.8
758.56	-16.04
758.748	88.4
758.937	-11.95
759.125	-32.43
759.313	12.63
759.502	-54.95
759.69	18.77
759.878	51.54
760.066	39.25
760.255	-30.38
760.443	-85.67
760.631	-32.43
760.819	61.78
761.008	74.07
761.196	37.2
761.384	104.79
761.572	-20.14
761.761	31.06
761.949	467.28
762.137	1550.65
762.325	12478.61
762.513	20570.14
762.701	27467.7
762.889	38371.08
763.077	30805.89
763.266	17889.35
763.454	16826.45
763.642	10430.65
763.83	5779.71
764.018	4077.85
764.206	2437.42
764.394	299.34
764.582	274.77
764.77	65.88
764.958	-13.99
765.146	59.73
765.334	76.12
765.522	74.07
765.71	35.16
765.898	39.25
766.085	-11.95
766.273	-71.34
766.461	-52.91
766.649	-3.75
766.837	-36.52
767.025	61.78
767.213	-16.04
767.401	45.4
767.588	31.06
767.776	0.34
767.964	4.44
768.152	8.53
768.339	-24.23
768.527	78.16
768.715	-89.77
768.903	98.64
769.09	8.53
769.278	137.56
769.466	49.49
769.654	102.74
769.841	31.06
770.029	123.22
770.217	-87.72
770.404	-3.75
770.592	-38.57
770.779	29.01
770.967	-26.28
771.155	108.88
771.342	2973.99
771.53	13430.92
771.717	13123.73
771.905	6727.92
772.092	8401.11
772.28	3348.77
772.467	1061.19
772.655	201.04
772.842	88.4
773.03	45.4
773.217	-3.75
773.405	8.53
773.592	-28.33
773.78	2.39
773.967	72.02
774.154	-16.04
774.342	112.98
774.529	12.63
774.717	22.87
774.904	2.39
775.091	16.73
775.279	-52.91
775.466	115.03
775.653	108.88
775.841	16.73
776.028	-118.44
776.215	-46.76
776.402	31.06
776.59	-44.71
776.777	2.39
776.964	-71.34
777.151	16.73
777.338	29.01
777.526	-22.19
777.713	-20.14
777.9	-20.14
778.087	39.25
778.274	49.49
778.461	-54.95
778.649	4.44
778.836	10.58
779.023	-24.23
779.21	-1.71
779.397	63.83
779.584	-32.43
779.771	-11.95
779.958	4.44
780.145	-75.43
780.332	-32.43
780.519	123.22
780.706	-34.47
780.893	135.51
781.08	-16.04
781.267	80.21
781.454	35.16
781.641	-11.95
781.828	-7.85
782.015	12.63
782.202	-24.23
782.388	-18.09
782.575	57.68
782.762	33.11
782.949	96.6
783.136	-75.43
783.323	29.01
783.509	84.31
783.696	-9.9
783.883	35.16
784.07	-67.24
784.257	47.44
784.443	-26.28
784.63	-63.15
784.817	-3.75
785.004	-16.04
785.19	-24.23
785.377	-97.96
785.564	14.68
785.75	18.77
785.937	-65.19
786.124	-30.38
786.31	-65.19
786.497	45.4
786.683	14.68
786.87	29.01
787.057	-63.15
787.243	-32.43
787.43	-16.04
787.616	61.78
787.803	-24.23
787.989	-30.38
788.176	26.96
788.362	2.39
788.549	-16.04
788.735	67.92
788.922	-42.67
789.108	94.55
789.295	133.46
789.481	-16.04
789.668	4.44
789.854	10.58
790.04	8.53
790.227	-22.19
790.413	-5.8
790.599	24.92
790.786	-18.09
790.972	6.49
791.158	47.44
791.345	6.49
791.531	-81.58
791.717	39.25
791.904	31.06
792.09	90.45
792.276	82.26
792.462	24.92
792.649	22.87
792.835	92.5
793.021	-67.24
793.207	-54.95
793.393	22.87
793.58	8.53
793.766	-9.9
793.952	198.99
794.138	2365.75
794.324	7590.11
794.51	8605.91
794.696	1691.96
794.882	837.96
795.069	604.49
795.255	145.75
795.441	78.16
795.627	-36.52
795.813	31.06
795.999	24.92
796.185	33.11
796.371	-11.95
796.557	37.2
796.743	-52.91
796.929	-26.28
797.115	51.54
797.3	-44.71
797.486	-22.19
797.672	-40.62
797.858	-50.86
798.044	-48.81
798.23	-7.85
798.416	-132.78
798.602	-9.9
798.788	-48.81
798.973	65.88
799.159	-91.82
799.345	123.22
799.531	-52.91
799.717	10.58
799.902	67.92
800.088	3481.89
800.274	2437.42
800.46	604.49
800.645	4264.21
800.831	11366.57
801.017	6777.07
801.202	3475.74
801.388	4747.53
801.574	2222.39
801.759	194.9
801.945	133.46
802.131	20.82
802.316	14.68
802.502	84.31
802.687	-40.62
802.873	12.63
803.058	-69.29
803.244	102.74
803.43	-48.81
803.615	55.64
803.801	2.39
803.986	43.35
804.172	-48.81
804.357	-36.52
804.543	51.54
804.728	-46.76
804.913	-11.95
805.099	59.73
805.284	-63.15
805.47	-63.15
805.655	-85.67
805.84	-75.43
806.026	-7.85
806.211	-38.57
806.397	41.3
806.582	-13.99
806.767	51.54
806.953	8.53
807.138	-1.71
807.323	96.6
807.508	35.16
807.694	-77.48
807.879	35.16
808.064	-57
808.249	78.16
808.435	55.64
808.62	4.44
808.805	88.4
808.99	-13.99
809.175	-22.19
809.361	209.23
809.546	432.46
809.731	8110.3
809.916	17862.72
810.101	13858.95
810.286	7370.98
810.471	14168.19
810.656	15237.23
810.841	13308.04
811.026	19220.53
811.211	32554.85
811.396	27021.24
811.581	14884.98
811.766	15247.47
811.951	15573.1
812.136	7999.71
812.321	4526.35
812.506	4243.73
812.691	2777.39
812.876	309.58
813.061	172.37
813.246	141.65
813.431	86.36
813.616	43.35
813.801	76.12
813.986	6.49
814.17	29.01
814.355	35.16
814.54	4.44
814.725	98.64
814.91	55.64
815.094	-7.85
815.279	-5.8
815.464	69.97
815.649	-9.9
815.833	-42.67
816.018	-50.86
816.203	53.59
816.388	29.01
816.572	-24.23
816.757	0.34
816.942	10.58
817.126	55.64
817.311	-52.91
817.496	45.4
817.68	92.5
817.865	67.92
818.049	-7.85
818.234	72.02
818.419	94.55
818.603	53.59
818.788	-22.19
818.972	69.97
819.157	92.5
819.341	-26.28
819.526	39.25
819.71	59.73
819.895	-1.71
820.079	-46.76
820.264	41.3
820.448	-79.53
820.633	-91.82
820.817	-112.3
821.001	-75.43
821.186	33.11
821.37	31.06
821.554	-52.91
821.739	10.58
821.923	-38.57
822.108	51.54
822.292	-108.2
822.476	57.68
822.66	-40.62
822.845	-89.77
823.029	-1.71
823.213	145.75
823.398	59.73
823.582	168.27
823.766	-65.19
823.95	39.25
824.134	-48.81
824.319	18.77
824.503	26.96
824.687	84.31
824.871	24.92
825.055	45.4
825.239	94.55
825.423	98.64
825.608	39.25
825.792	-11.95
825.976	67.92
826.16	428.37
826.344	2902.31
826.528	211.28
826.712	100.69
826.896	0.34
827.08	55.64
827.264	61.78
827.448	-18.09
827.632	4.44
827.816	51.54
828	-65.19
828.184	22.87
828.368	-71.34
828.552	4.44
828.736	45.4
828.919	26.96
829.103	-128.68
829.287	-28.33
829.471	2.39
829.655	-5.8
829.839	45.4
830.023	16.73
830.206	102.74
830.39	-38.57
830.574	78.16
830.758	-26.28
830.941	22.87
831.125	-32.43
831.309	-11.95
831.493	65.88
831.676	-50.86
831.86	155.99
832.044	24.92
832.227	8.53
832.411	84.31
832.595	-69.29
832.778	20.82
832.962	-18.09
833.146	80.21
833.329	-67.24
833.513	-89.77
833.696	123.22
833.88	59.73
834.064	20.82
834.247	-57
834.431	35.16
834.614	-38.57
834.798	104.79
834.981	35.16
835.165	-75.43
835.348	-50.86
835.532	86.36
835.715	4.44
835.898	-81.58
836.082	-20.14
836.265	22.87
836.449	-42.67
836.632	47.44
836.815	110.93
836.999	-30.38
837.182	133.46
837.365	0.34
837.549	80.21
837.732	29.01
837.915	20.82
838.099	0.34
838.282	-52.91
838.465	45.4
838.648	55.64
838.832	59.73
839.015	65.88
839.198	-110.25
839.381	-40.62
839.565	24.92
839.748	84.31
839.931	0.34
840.114	67.92
840.297	8.53
840.48	14.68
840.663	2963.75
840.847	6955.24
841.03	5003.53
841.213	651.6
841.396	663.88
841.579	547.15
841.762	512.33
841.945	164.18
842.128	1089.86
842.311	6127.86
842.494	7620.83
842.677	2992.42
842.86	1497.41
843.043	1786.17
843.226	1024.33
843.409	6.49
843.592	18.77
843.775	8.53
843.958	-42.67
844.141	51.54
844.323	22.87
844.506	0.34
844.689	-32.43
844.872	24.92
845.055	-71.34
845.238	22.87
845.42	-5.8
845.603	49.49
845.786	-28.33
845.969	82.26
846.152	-1.71
846.334	-32.43
846.517	-18.09
846.7	-16.04
846.883	88.4
847.065	16.73
847.248	39.25
847.431	45.4
847.613	-1.71
847.796	6.49
847.979	-34.47
848.161	69.97
848.344	53.59
848.526	41.3
848.709	6.49
848.892	49.49
849.074	88.4
849.257	-89.77
849.439	51.54
849.622	72.02
849.804	-73.39
849.987	74.07
850.169	22.87
850.352	20.82
850.534	-36.52
850.717	-26.28
850.899	-61.1
851.082	22.87
851.264	2.39
851.446	2.39
851.629	8.53
851.811	-52.91
851.994	-57
852.176	88.4
852.358	53.59
852.541	-20.14
852.723	100.69
852.905	74.07
853.088	14.68
853.27	18.77
853.452	-42.67
853.635	20.82
853.817	-52.91
853.999	-34.47
854.181	72.02
854.363	41.3
854.546	125.27
854.728	39.25
854.91	2.39
855.092	37.2
855.274	-18.09
855.457	110.93
855.639	18.77
855.821	57.68
856.003	-44.71
856.185	18.77
856.367	43.35
856.549	67.92
856.731	-7.85
856.913	14.68
857.095	14.68
857.277	24.92
857.459	-3.75
857.641	8.53
857.823	-57
858.005	-11.95
858.187	26.96
858.369	2.39
858.551	63.83
858.733	0.34
858.915	-140.97
859.097	49.49
859.279	49.49
859.461	-140.97
859.643	22.87
859.824	-5.8
860.006	-61.1
860.188	-7.85
860.37	18.77
860.552	90.45
860.734	84.31
860.915	119.12
861.097	78.16
861.279	6.49
861.461	-11.95
861.642	-48.81
861.824	-24.23
862.006	-38.57
862.188	-42.67
862.369	-145.06
862.551	-11.95
862.733	-46.76
862.914	12.63
863.096	-3.75
863.278	-79.53
863.459	39.25
863.641	-50.86
863.822	-100.01
864.004	2.39
864.185	35.16
864.367	-9.9
864.549	63.83
864.73	18.77
864.912	41.3
865.093	-83.63
865.275	-18.09
865.456	-85.67
865.638	33.11
865.819	-136.87
866.001	18.77
866.182	47.44
866.363	-89.77
866.545	33.11
866.726	102.74
866.908	-63.15
867.089	29.01
867.27	-52.91
867.452	76.12
867.633	-69.29
867.814	-24.23
867.996	-73.39
868.177	72.02
868.358	-1.71
868.54	-65.19
868.721	-5.8
868.902	-7.85
869.083	-16.04
869.265	-5.8
869.446	92.5
869.627	-48.81
869.808	-13.99
869.989	-63.15
870.171	-46.76
870.352	-9.9
870.533	-30.38
870.714	-71.34
870.895	-44.71
871.076	78.16
871.257	100.69
871.438	55.64
871.619	12.63
871.801	-32.43
871.982	41.3
872.163	57.68
872.344	33.11
872.525	-50.86
872.706	-7.85
872.887	29.01
873.068	29.01
873.249	26.96
873.43	2.39
873.61	-38.57
873.791	14.68
873.972	-57
874.153	31.06
874.334	63.83
874.515	-16.04
874.696	6.49
874.877	-38.57
875.058	63.83
875.238	4.44
875.419	-13.99
875.6	-18.09
875.781	35.16
875.962	47.44
876.142	57.68
876.323	-26.28
876.504	-40.62
876.685	-102.06
876.865	127.32
877.046	-63.15
877.227	8.53
877.407	-20.14
877.588	12.63
877.769	-18.09
877.949	49.49
878.13	-91.82
878.311	22.87
878.491	88.4
878.672	10.58
878.853	10.58
879.033	-46.76
879.214	-7.85
879.394	90.45
879.575	35.16
879.755	-48.81
879.936	-3.75
880.116	26.96
880.297	10.58
880.477	-20.14
880.658	24.92
880.838	100.69
881.019	-161.45
881.199	-44.71
881.38	-20.14
881.56	53.59
881.74	24.92
881.921	18.77
882.101	76.12
882.281	-24.23
882.462	47.44
882.642	-13.99
882.822	24.92
883.003	78.16
883.183	-22.19
883.363	63.83
883.544	-3.75
883.724	-24.23
883.904	-7.85
884.084	-18.09
884.265	-3.75
884.445	33.11
884.625	29.01
884.805	-18.09
884.985	-1.71
885.166	106.84
885.346	22.87
885.526	55.64
885.706	-48.81
885.886	-75.43
886.066	-18.09
886.246	0.34
886.426	-30.38
886.606	35.16
886.787	55.64
886.967	123.22
887.147	-30.38
887.327	-63.15
887.507	-20.14
887.687	53.59
887.867	-50.86
888.047	94.55
888.227	12.63
888.406	-16.04
888.586	-50.86
888.766	33.11
888.946	-151.21
889.126	-69.29
889.306	119.12
889.486	-63.15
889.666	-79.53
889.846	-28.33
890.025	-3.75
890.205	2.39
890.385	-9.9
890.565	47.44
890.745	-16.04
890.924	-59.05
891.104	-81.58
891.284	-18.09
891.464	-26.28
891.643	59.73
891.823	-16.04
892.003	-22.19
892.183	-50.86
892.362	-18.09
892.542	63.83
892.722	2.39
892.901	51.54
893.081	-1.71
893.26	-7.85
893.44	-52.91
893.62	10.58
893.799	31.06
893.979	133.46
894.158	100.69
894.338	57.68
894.517	106.84
894.697	-65.19
894.877	147.8
895.056	41.3
895.236	-26.28
895.415	18.77
895.594	-108.2
895.774	-67.24
895.953	2.39
896.133	127.32
896.312	-30.38
896.492	0.34
896.671	-1.71
896.85	-30.38
897.03	14.68
897.209	-38.57
897.388	49.49
897.568	-16.04
897.747	-52.91
897.926	10.58
898.106	78.16
898.285	-69.29
898.464	43.35
898.643	-22.19
898.823	-77.48
899.002	6.49
899.181	2.39
899.36	51.54
899.54	-5.8
899.719	-155.3
899.898	43.35
900.077	65.88
900.256	29.01
900.435	-81.58
900.614	106.84
900.794	47.44
900.973	47.44
901.152	-16.04
901.331	-30.38
901.51	-124.58
901.689	14.68
901.868	-87.72
902.047	-38.57
902.226	-20.14
902.405	125.27
902.584	74.07
902.763	45.4
902.942	14.68
903.121	45.4
903.3	31.06
903.479	-16.04
903.658	33.11
903.837	-40.62
904.015	18.77
904.194	-11.95
904.373	-11.95
904.552	26.96
904.731	14.68
904.91	20.82
905.089	12.63
905.267	57.68
905.446	-24.23
905.625	92.5
905.804	22.87
905.982	-63.15
906.161	88.4
906.34	86.36
906.519	14.68
906.697	69.97
906.876	20.82
907.055	-9.9
907.233	26.96
907.412	20.82
907.591	-136.87
907.769	29.01
907.948	10.58
908.127	33.11
908.305	10.58
908.484	-28.33
908.662	6.49
908.841	-5.8
909.019	14.68
909.198	84.31
909.377	2.39
909.555	37.2
909.734	-54.95
909.912	-30.38
910.09	-38.57
910.269	-52.91
910.447	12.63
910.626	0.34
910.804	22.87
910.983	-77.48
911.161	26.96
911.339	-5.8
911.518	-3.75
911.696	-9.9
911.875	-22.19
912.053	-81.58
912.231	-28.33
912.41	-97.96
912.588	-30.38
912.766	18.77
912.944	33.11
913.123	-9.9
913.301	-71.34
913.479	29.01
913.657	-87.72
913.836	65.88
914.014	-22.19
914.192	78.16
914.37	26.96
914.548	-40.62
914.727	-63.15
914.905	92.5
915.083	-34.47
915.261	12.63
915.439	-24.23
915.617	39.25
915.795	-26.28
915.973	-5.8
916.151	29.01
916.329	-5.8
916.508	-18.09
916.686	-30.38
916.864	39.25
917.042	10.58
917.22	-50.86
917.398	-13.99
917.575	-24.23
917.753	-40.62
917.931	22.87
918.109	-1.71
918.287	26.96
918.465	-77.48
918.643	16.73
918.821	-153.26
918.999	2.39
919.177	-36.52
919.354	14.68
919.532	-28.33
919.71	16.73
919.888	-30.38
920.066	0.34
920.243	86.36
920.421	6.49
920.599	72.02
920.777	-20.14
920.954	57.68
921.132	59.73
921.31	0.34
921.488	-9.9
921.665	8.53
921.843	8.53
922.021	-50.86
922.198	-79.53
922.376	18.77
922.553	0.34
922.731	65.88
922.909	76.12
923.086	-7.85
923.264	-11.95
923.441	35.16
923.619	43.35
923.796	61.78
923.974	-46.76
924.152	-11.95
924.329	96.6
924.507	18.77
924.684	80.21
924.861	-26.28
925.039	59.73
925.216	-81.58
925.394	-97.96
925.571	35.16
925.749	-63.15
925.926	-106.15
926.103	18.77
926.281	-77.48
926.458	-28.33
926.635	76.12
926.813	-32.43
926.99	59.73
927.167	-9.9
927.345	20.82
927.522	-97.96
927.699	86.36
927.876	26.96
928.054	-5.8
928.231	33.11
928.408	47.44
928.585	8.53
928.763	6.49
928.94	59.73
929.117	-30.38
929.294	-112.3
929.471	-28.33
929.648	-32.43
929.825	49.49
930.003	-1.71
930.18	24.92
930.357	-100.01
930.534	-7.85
930.711	-30.38
930.888	26.96
931.065	10.58
931.242	-32.43
931.419	-34.47
931.596	47.44
931.773	-77.48
931.95	18.77
932.127	61.78
932.304	12.63
932.481	49.49
932.658	-79.53
932.835	26.96
933.011	12.63
933.188	49.49
933.365	22.87
933.542	-3.75
933.719	-22.19
933.896	6.49
934.073	14.68
934.249	-5.8
934.426	-48.81
934.603	-73.39
934.78	63.83
934.957	-32.43
935.133	2.39
935.31	-52.91
935.487	-134.82
935.664	65.88
935.84	57.68
936.017	43.35
936.194	33.11
936.37	-93.87
936.547	-11.95
936.724	76.12
936.9	-7.85
937.077	-132.78
937.253	55.64
937.43	26.96
937.607	-3.75
937.783	22.87
937.96	59.73
938.136	43.35
938.313	-95.91
938.489	-7.85
938.666	4.44
938.842	26.96
939.019	41.3
939.195	-18.09
939.372	-24.23
939.548	-52.91
939.725	-1.71
939.901	-71.34
940.077	-42.67
940.254	-83.63
940.43	57.68
940.607	55.64
940.783	-1.71
940.959	69.97
941.136	-81.58
941.312	22.87
941.488	-95.91
941.665	63.83
941.841	45.4
942.017	-114.34
942.193	-3.75
942.37	-50.86
942.546	-87.72
942.722	-16.04
942.898	-26.28
943.074	18.77
943.251	6.49
943.427	-97.96
943.603	39.25
943.779	-26.28
943.955	-16.04
944.131	-57
944.308	-16.04
944.484	24.92
944.66	100.69
944.836	-128.68
945.012	-24.23
945.188	104.79
945.364	26.96
945.54	92.5
945.716	-65.19
945.892	-54.95
946.068	20.82
946.244	-65.19
946.42	-52.91
946.596	4.44
946.772	-1.71
946.948	84.31
947.124	4.44
947.3	-67.24
947.475	125.27
947.651	-1.71
947.827	57.68
948.003	10.58
948.179	0.34
948.355	8.53
948.531	-28.33
948.706	26.96
948.882	-40.62
949.058	8.53
949.234	47.44
949.409	-38.57
949.585	-65.19
949.761	-59.05
949.937	-67.24
950.112	-11.95
950.288	63.83
950.464	131.41
950.639	84.31
950.815	-85.67
950.991	-67.24
951.166	-16.04
951.342	-24.23
951.518	-87.72
951.693	55.64
951.869	-18.09
952.044	29.01
952.22	82.26
952.395	127.32
952.571	45.4
952.747	69.97
952.922	-38.57
953.098	67.92
953.273	-52.91
953.448	6.49
953.624	61.78
953.799	45.4
953.975	80.21
954.15	20.82
954.326	-46.76
954.501	0.34
954.676	78.16
954.852	-54.95
955.027	-71.34
955.203	51.54
955.378	-67.24
955.553	-26.28
955.729	69.97
955.904	-95.91
956.079	-46.76
956.254	29.01
956.43	74.07
956.605	-34.47
956.78	6.49
956.955	-59.05
957.131	-77.48
957.306	-61.1
957.481	-11.95
957.656	-59.05
957.831	53.59
958.007	-20.14
958.182	22.87
958.357	-7.85
958.532	-3.75
958.707	-40.62
958.882	6.49
959.057	-79.53
959.232	-9.9
959.407	-36.52
959.582	37.2
959.757	37.2
959.932	-3.75
960.107	10.58
960.282	37.2
960.457	18.77
960.632	-26.28
960.807	-36.52
960.982	59.73
961.157	12.63
961.332	-20.14
961.507	-106.15
961.682	-28.33
961.857	43.35
962.032	69.97
962.206	63.83
962.381	10.58
962.556	-22.19
962.731	-40.62
962.906	-5.8
963.081	-87.72
963.255	-9.9
963.43	129.36
963.605	26.96
963.78	-28.33
963.954	35.16
964.129	67.92
964.304	-34.47
964.479	-7.85
964.653	-18.09
964.828	92.5
965.003	-40.62
965.177	45.4
965.352	2.39
965.526	-36.52
965.701	-54.95
965.876	49.49
966.05	2.39
966.225	24.92
966.399	-30.38
966.574	43.35
966.748	-18.09
966.923	-18.09
967.098	-7.85
967.272	-71.34
967.446	-3.75
967.621	35.16
967.795	-44.71
967.97	39.25
968.144	-46.76
968.319	-13.99
968.493	45.4
968.668	45.4
968.842	-42.67
969.016	45.4
969.191	-28.33
969.365	26.96
969.539	106.84
969.714	-26.28
969.888	90.45
970.062	2.39
970.237	104.79
970.411	-77.48
970.585	10.58
970.759	57.68
970.934	-16.04
971.108	63.83
971.282	78.16
971.456	-1.71
971.63	41.3
971.805	26.96
971.979	-42.67
972.153	20.82
972.327	6.49
972.501	-9.9
972.675	26.96
972.849	-44.71
973.024	43.35
973.198	-5.8
973.372	-77.48
973.546	-73.39
973.72	8.53
973.894	51.54
974.068	0.34
974.242	24.92
974.416	31.06
974.59	-24.23
974.764	-5.8
974.938	55.64
975.112	-63.15
975.286	-16.04
975.46	123.22
975.633	31.06
975.807	80.21
975.981	-30.38
976.155	-7.85
976.329	-7.85
976.503	-50.86
976.677	16.73
976.85	-30.38
977.024	16.73
977.198	-132.78
977.372	20.82
977.546	-71.34
977.719	-5.8
977.893	35.16
978.067	-7.85
978.241	53.59
978.414	-38.57
978.588	121.17
978.762	49.49
978.935	14.68
979.109	102.74
979.283	-54.95
979.456	-81.58
979.63	76.12
979.804	-106.15
979.977	102.74
980.151	-32.43
980.324	-3.75
980.498	33.11
980.671	-5.8
980.845	12.63
981.018	4.44
981.192	-22.19
981.365	-77.48
981.539	-32.43
981.712	-95.91
981.886	61.78
982.059	137.56
982.233	24.92
982.406	10.58
982.58	-34.47
982.753	-9.9
982.926	-167.59
983.1	-20.14
983.273	-1.71
983.446	-42.67
983.62	6.49
983.793	45.4
983.966	18.77
984.14	-9.9
984.313	43.35
984.486	18.77
984.66	65.88
984.833	59.73
985.006	-52.91
985.179	-67.24
985.352	-108.2
985.526	139.6
985.699	12.63
985.872	-32.43
986.045	-34.47
986.218	-83.63
986.391	22.87
986.565	78.16
986.738	29.01
986.911	-38.57
987.084	-5.8
987.257	115.03
987.43	-5.8
987.603	74.07
987.776	8.53
987.949	-13.99
988.122	-3.75
988.295	96.6
988.468	104.79
988.641	115.03
988.814	-9.9
988.987	8.53
989.16	29.01
989.333	45.4
989.506	-3.75
989.679	-42.67
989.852	31.06
990.025	26.96
990.197	-26.28
990.37	26.96
990.543	18.77
990.716	-18.09
990.889	61.78
991.062	-52.91
991.234	63.83
991.407	-40.62
991.58	-77.48
991.753	-7.85
991.925	16.73
992.098	-24.23
992.271	72.02
992.444	69.97
992.616	72.02
992.789	198.99
992.962	-38.57
993.134	65.88
993.307	-11.95
993.479	-120.49
993.652	65.88
993.825	43.35
993.997	-5.8
994.17	6.49
994.342	-7.85
994.515	49.49
994.688	-1.71
994.86	-13.99
995.033	-46.76
995.205	-24.23
995.378	-1.71
995.55	-7.85
995.723	53.59
995.895	22.87
996.067	-71.34
996.24	-3.75
996.412	16.73
996.585	57.68
996.757	-59.05
996.929	74.07
997.102	-110.25
997.274	39.25
997.447	67.92
997.619	-71.34
997.791	-93.87
997.964	-28.33
998.136	-149.16
998.308	-83.63
998.48	80.21
998.653	-13.99
998.825	-7.85
998.997	76.12
999.169	-34.47
999.342	-13.99
999.514	12.63
999.686	96.6
999.858	-40.62
1000.03	12.63
1000.202	12.63
1000.374	14.68
1000.547	-42.67
1000.719	-36.52
1000.891	22.87
1001.063	-36.52
1001.235	2.39
1001.407	-24.23
1001.579	-7.85
1001.751	94.55
1001.923	102.74
1002.095	-48.81
1002.267	51.54
1002.439	16.73
1002.611	-38.57
1002.783	-11.95
1002.955	-77.48
1003.127	-7.85
1003.299	-26.28
1003.471	78.16
1003.643	-7.85
1003.815	-63.15
1003.986	-26.28
1004.158	-9.9
1004.33	82.26
1004.502	41.3
1004.674	-26.28
1004.846	39.25
1005.017	33.11
1005.189	0.34
1005.361	78.16
1005.533	24.92
1005.704	-50.86
1005.876	18.77
1006.048	-57
1006.22	14.68
1006.391	-20.14
1006.563	-85.67
1006.735	74.07
1006.906	41.3
1007.078	-18.09
1007.25	35.16
1007.421	41.3
1007.593	33.11
1007.764	6.49
1007.936	-36.52
1008.108	-71.34
1008.279	10.58
1008.451	35.16
1008.622	-26.28
1008.794	-1.71
1008.965	-11.95
1009.137	24.92
1009.308	31.06
1009.48	-57
1009.651	26.96
1009.823	-132.78
1009.994	108.88
1010.165	-22.19
1010.337	-42.67
1010.508	-83.63
1010.68	-5.8
1010.851	14.68
1011.022	-30.38
1011.194	-36.52
1011.365	8.53
1011.536	-38.57
1011.708	-40.62
1011.879	-32.43
1012.05	43.35
1012.222	-69.29
1012.393	16.73
1012.564	-36.52
1012.735	-59.05
1012.906	6.49
1013.078	80.21
1013.249	-16.04
1013.42	84.31
1013.591	76.12
1013.762	119.12
1013.934	-34.47
1014.105	41.3
1014.276	-65.19
1014.447	74.07
1014.618	-44.71
1014.789	76.12
1014.96	4.44
1015.131	45.4
1015.302	106.84
1015.473	-75.43
1015.644	112.98
1015.815	-7.85
1015.986	24.92
1016.157	22.87
1016.328	-38.57
1016.499	18.77
1016.67	6.49
1016.841	14.68
1017.012	-54.95
1017.183	-93.87
1017.354	96.6
1017.525	4.44
1017.696	-57
1017.867	37.2
1018.037	-28.33
1018.208	100.69
1018.379	33.11
1018.55	92.5
1018.721	33.11
1018.891	6.49
1019.062	-24.23
1019.233	-3.75
1019.404	-106.15
1019.574	-5.8
1019.745	-13.99
1019.916	186.71
1020.087	-1.71
1020.257	69.97
1020.428	8.53
1020.599	20.82
1020.769	-69.29
1020.94	-32.43
1021.11	-24.23
1021.281	67.92
1021.452	45.4
1021.622	10.58
1021.793	8.53
1021.963	53.59
1022.134	-20.14
1022.305	47.44
1022.475	61.78
1022.646	59.73
1022.816	-22.19
1022.987	-16.04
1023.157	61.78
1023.327	78.16
1023.498	16.73
1023.668	14.68
1023.839	4.44
1024.009	43.35
1024.18	-67.24
1024.35	-5.8
1024.52	-110.25
1024.691	-67.24
1024.861	8.53
1025.031	-32.43
1025.202	72.02
1025.372	65.88
1025.542	-13.99
1025.713	72.02
1025.883	-18.09
1026.053	-42.67
1026.223	12.63
1026.394	-116.39
1026.564	-20.14
1026.734	55.64
1026.904	-13.99
1027.074	-38.57
1027.245	2.39
1027.415	-7.85
1027.585	-34.47
1027.755	69.97
1027.925	14.68
1028.095	-44.71
1028.265	106.84
1028.435	-18.09
1028.606	-1.71
1028.776	143.7
1028.946	-38.57
1029.116	-13.99
1029.286	106.84
1029.456	4.44
1029.626	-16.04
1029.796	108.88
1029.966	49.49
1030.136	82.26
1030.306	0.34
1030.475	41.3
1030.645	-54.95
1030.815	29.01
1030.985	59.73
1031.155	51.54
1031.325	-85.67
1031.495	65.88
1031.665	61.78
1031.835	110.93
1032.004	-40.62
1032.174	35.16
1032.344	-48.81
1032.514	-69.29
1032.684	-52.91
1032.853	29.01
1033.023	-3.75
1033.193	-104.11
1033.362	-89.77
1033.532	-20.14
1033.702	4.44
1033.872	22.87
1034.041	-138.92
1034.211	41.3
1034.381	29.01
1034.55	-71.34
1034.72	10.58
1034.889	47.44
1035.059	-18.09
1035.229	20.82
1035.398	-57
1035.568	125.27
1035.737	-18.09
1035.907	-34.47
1036.076	-20.14
1036.246	29.01
1036.415	119.12
1036.585	94.55
1036.754	35.16
1036.924	59.73
1037.093	51.54
1037.263	2.39
1037.432	-61.1
1037.601	-20.14
1037.771	-67.24
1037.94	127.32
1038.11	53.59
1038.279	26.96
1038.448	-16.04
1038.618	-16.04
1038.787	26.96
1038.956	-36.52
1039.126	16.73
1039.295	41.3
1039.464	-89.77
1039.633	82.26
1039.803	-22.19
1039.972	4.44
1040.141	8.53
1040.31	-34.47
1040.479	-20.14
1040.649	26.96
1040.818	-81.58
1040.987	88.4
1041.156	57.68
1041.325	33.11
1041.494	31.06
1041.663	53.59
1041.833	-59.05
1042.002	-22.19
1042.171	37.2
1042.34	-18.09
1042.509	-1.71
1042.678	53.59
