Data from LSP80_X17_Subt2_14-55-04-663.txt Node
Date: Fri Aug 18 14:55:04 EDT 2023
User: Emmanuel
Spectrometer: USB4A00615
Scans to average: 1
Trigger mode: 1
Integration Time (sec): 5.000000E-3
Electric dark correction enabled: true
Boxcar width: 0
XAxis mode: Wavelengths
Number of Pixels in Spectrum: 3648
>>>>>Begin Spectral Data<<<<<
346.606	-244.9
346.818	-244.9
347.029	-244.9
347.241	-138.41
347.452	39.76
347.664	131.92
347.876	-9.39
348.087	-40.11
348.299	11.09
348.51	2.9
348.722	41.81
348.933	-42.15
349.145	-27.82
349.356	47.96
349.568	-44.2
349.779	-85.16
349.991	13.14
350.202	-48.3
350.414	-62.63
350.625	-70.83
350.836	-58.54
351.048	15.19
351.259	21.33
351.471	-15.53
351.682	-50.35
351.893	-29.87
352.105	-44.2
352.316	64.34
352.527	-23.72
352.739	-85.16
352.95	-21.67
353.161	-3.24
353.372	15.19
353.584	152.4
353.795	35.67
354.006	-76.97
354.217	-31.91
354.429	-40.11
354.64	-72.87
354.851	-58.54
355.062	-25.77
355.274	-144.55
355.485	17.24
355.696	27.48
355.907	-56.49
356.118	58.2
356.329	-19.63
356.54	-33.96
356.752	-31.91
356.963	-29.87
357.174	-109.74
357.385	-27.82
357.596	-50.35
357.807	-50.35
358.018	-11.43
358.229	23.38
358.44	-148.65
358.651	19.29
358.862	-54.44
359.073	97.11
359.284	-31.91
359.495	-56.49
359.706	-40.11
359.917	-52.39
360.128	-31.91
360.339	-15.53
360.55	-175.27
360.761	33.62
360.972	-46.25
361.182	-29.87
361.393	-97.45
361.604	56.15
361.815	-87.21
362.026	-42.15
362.237	-60.59
362.447	-81.07
362.658	-70.83
362.869	15.19
363.08	-56.49
363.291	99.16
363.501	-1.19
363.712	-103.59
363.923	7
364.134	50
364.344	-25.77
364.555	158.55
364.766	-83.11
364.976	15.19
365.187	-113.83
365.398	-76.97
365.608	-66.73
365.819	-58.54
366.03	-40.11
366.24	-5.29
366.451	-42.15
366.662	15.19
366.872	-70.83
367.083	21.33
367.293	-25.77
367.504	39.76
367.714	19.29
367.925	-70.83
368.135	43.86
368.346	54.1
368.557	52.05
368.767	-50.35
368.977	-70.83
369.188	23.38
369.398	-56.49
369.609	-97.45
369.819	-68.78
370.03	2.9
370.24	-58.54
370.451	39.76
370.661	84.82
370.871	-38.06
371.082	31.57
371.292	-101.55
371.502	-58.54
371.713	-3.24
371.923	17.24
372.133	-15.53
372.344	-58.54
372.554	-7.34
372.764	23.38
372.975	21.33
373.185	-70.83
373.395	-7.34
373.605	-95.4
373.816	-31.91
374.026	-91.31
374.236	-81.07
374.446	-140.46
374.656	-122.02
374.867	19.29
375.077	158.55
375.287	15.19
375.497	54.1
375.707	74.58
375.917	-25.77
376.127	-85.16
376.338	-5.29
376.548	-38.06
376.758	-3.24
376.968	68.44
377.178	-1.19
377.388	15.19
377.598	0.85
377.808	-83.11
378.018	-7.34
378.228	21.33
378.438	-42.15
378.648	2.9
378.858	-21.67
379.068	-48.3
379.278	72.53
379.488	-95.4
379.698	-17.58
379.908	-79.02
380.118	58.2
380.327	-60.59
380.537	-107.69
380.747	-15.53
380.957	35.67
381.167	-31.91
381.377	33.62
381.587	-62.63
381.796	33.62
382.006	-38.06
382.216	0.85
382.426	-99.5
382.636	15.19
382.845	-115.88
383.055	-56.49
383.265	-40.11
383.475	-11.43
383.684	-29.87
383.894	-72.87
384.104	-27.82
384.313	-23.72
384.523	-70.83
384.733	-7.34
384.942	-29.87
385.152	-15.53
385.362	-42.15
385.571	-29.87
385.781	-29.87
385.991	27.48
386.2	-38.06
386.41	19.29
386.619	-23.72
386.829	-60.59
387.038	-15.53
387.248	-60.59
387.457	-99.5
387.667	-13.48
387.876	-54.44
388.086	-17.58
388.295	-56.49
388.505	11.09
388.714	-5.29
388.924	-103.59
389.133	50
389.343	-15.53
389.552	45.91
389.762	-42.15
389.971	4.95
390.18	-58.54
390.39	-177.32
390.599	31.57
390.808	-68.78
391.018	-5.29
391.227	13.14
391.436	-62.63
391.646	-132.26
391.855	-83.11
392.064	174.93
392.274	-107.69
392.483	-7.34
392.692	2.9
392.901	-58.54
393.111	-17.58
393.32	-44.2
393.529	-60.59
393.738	-25.77
393.947	-29.87
394.157	-68.78
394.366	-31.91
394.575	-15.53
394.784	19.29
394.993	-76.97
395.202	0.85
395.411	-74.92
395.62	-9.39
395.83	41.81
396.039	-54.44
396.248	-72.87
396.457	-101.55
396.666	-7.34
396.875	47.96
397.084	-144.55
397.293	-46.25
397.502	9.05
397.711	-11.43
397.92	-68.78
398.129	0.85
398.338	123.73
398.547	-27.82
398.756	-27.82
398.965	-101.55
399.174	-85.16
399.382	-15.53
399.591	-74.92
399.8	43.86
400.009	29.52
400.218	45.91
400.427	-17.58
400.636	-130.22
400.844	50
401.053	64.34
401.262	-17.58
401.471	58.2
401.68	11.09
401.888	95.06
402.097	31.57
402.306	121.68
402.515	4.95
402.723	13.14
402.932	37.72
403.141	-23.72
403.35	43.86
403.558	33.62
403.767	-9.39
403.976	64.34
404.184	-122.02
404.393	43.86
404.602	-89.26
404.81	-93.35
405.019	97.11
405.227	-21.67
405.436	27.48
405.645	-56.49
405.853	-68.78
406.062	9.05
406.27	-13.48
406.479	-40.11
406.687	-46.25
406.896	78.68
407.104	-111.78
407.313	4.95
407.521	-19.63
407.73	47.96
407.938	11.09
408.147	13.14
408.355	54.1
408.563	-42.15
408.772	17.24
408.98	2.9
409.189	-60.59
409.397	-81.07
409.605	-42.15
409.814	23.38
410.022	0.85
410.23	-9.39
410.439	72.53
410.647	-117.93
410.855	7
411.064	23.38
411.272	-3.24
411.48	-15.53
411.688	13.14
411.897	19.29
412.105	4.95
412.313	-13.48
412.521	-25.77
412.73	-70.83
412.938	-15.53
413.146	25.43
413.354	35.67
413.562	60.24
413.77	4.95
413.979	-38.06
414.187	35.67
414.395	-62.63
414.603	-21.67
414.811	-13.48
415.019	84.82
415.227	-13.48
415.435	-54.44
415.643	154.45
415.851	-3.24
416.059	19.29
416.267	-9.39
416.475	138.07
416.683	23.38
416.891	45.91
417.099	383.82
417.307	164.69
417.515	441.17
417.723	82.77
417.931	164.69
418.139	56.15
418.347	101.2
418.555	99.16
418.763	64.34
418.971	82.77
419.179	-25.77
419.386	-83.11
419.594	35.67
419.802	90.96
420.01	125.78
420.218	197.46
420.426	355.15
420.633	269.14
420.841	811.85
421.049	355.15
421.257	1020.74
421.464	969.54
421.672	1114.95
421.88	639.82
422.088	287.57
422.295	238.42
422.503	-27.82
422.711	2.9
422.918	15.19
423.126	47.96
423.334	-62.63
423.541	-81.07
423.749	25.43
423.956	107.35
424.164	39.76
424.372	76.63
424.579	17.24
424.787	138.07
424.994	131.92
425.202	99.16
425.409	95.06
425.617	-33.96
425.824	74.58
426.032	21.33
426.239	-7.34
426.447	68.44
426.654	80.72
426.862	105.3
427.069	389.97
427.277	219.99
427.484	293.71
427.692	158.55
427.899	349.01
428.106	578.38
428.314	308.05
428.521	275.28
428.728	76.63
428.936	90.96
429.143	9.05
429.351	156.5
429.558	109.4
429.765	25.43
429.972	-89.26
430.18	39.76
430.387	146.26
430.594	15.19
430.801	90.96
431.009	344.91
431.216	121.68
431.423	-29.87
431.63	25.43
431.838	-5.29
432.045	-46.25
432.252	-36.01
432.459	-1.19
432.666	-44.2
432.873	19.29
433.081	52.05
433.288	58.2
433.495	-48.3
433.702	144.21
433.909	33.62
434.116	4.95
434.323	54.1
434.53	-3.24
434.737	11.09
434.944	162.64
435.151	162.64
435.358	174.93
435.565	119.64
435.772	95.06
435.979	93.01
436.186	174.93
436.393	-13.48
436.6	60.24
436.807	-21.67
437.014	66.39
437.221	-21.67
437.428	-48.3
437.635	115.54
437.841	50
438.048	105.3
438.255	-23.72
438.462	-15.53
438.669	15.19
438.876	68.44
439.082	37.72
439.289	19.29
439.496	19.29
439.703	-1.19
439.91	54.1
440.116	123.73
440.323	-1.19
440.53	33.62
440.737	115.54
440.943	66.39
441.15	54.1
441.357	31.57
441.563	15.19
441.77	19.29
441.977	146.26
442.183	47.96
442.39	101.2
442.597	146.26
442.803	140.12
443.01	70.48
443.216	86.87
443.423	52.05
443.63	54.1
443.836	33.62
444.043	154.45
444.249	138.07
444.456	154.45
444.662	23.38
444.869	66.39
445.075	68.44
445.282	21.33
445.488	-74.92
445.695	172.88
445.901	109.4
446.107	119.64
446.314	54.1
446.52	236.37
446.727	117.59
446.933	90.96
447.139	127.83
447.346	123.73
447.552	148.31
447.759	25.43
447.965	41.81
448.171	-9.39
448.378	41.81
448.584	86.87
448.79	248.66
448.996	271.19
449.203	113.49
449.409	162.64
449.615	142.16
449.821	43.86
450.028	144.21
450.234	158.55
450.44	166.74
450.646	101.2
450.852	162.64
451.059	19.29
451.265	93.01
451.471	164.69
451.677	230.23
451.883	260.95
452.089	82.77
452.295	78.68
452.502	52.05
452.708	351.06
452.914	99.16
453.12	340.82
453.326	86.87
453.532	191.31
453.738	115.54
453.944	179.03
454.15	152.4
454.356	201.55
454.562	166.74
454.768	217.94
454.974	52.05
455.18	129.88
455.386	136.02
455.592	11.09
455.798	95.06
456.003	76.63
456.209	170.83
456.415	31.57
456.621	25.43
456.827	50
457.033	4.95
457.239	74.58
457.444	33.62
457.65	35.67
457.856	45.91
458.062	70.48
458.268	33.62
458.473	131.92
458.679	50
458.885	25.43
459.091	39.76
459.296	195.41
459.502	113.49
459.708	97.11
459.914	21.33
460.119	262.99
460.325	0.85
460.531	27.48
460.736	62.29
460.942	97.11
461.147	21.33
461.353	2.9
461.559	60.24
461.764	185.17
461.97	90.96
462.175	41.81
462.381	123.73
462.587	150.36
462.792	13.14
462.998	109.4
463.203	107.35
463.409	256.85
463.614	138.07
463.82	238.42
464.025	76.63
464.231	256.85
464.436	113.49
464.641	60.24
464.847	2.9
465.052	156.5
465.258	50
465.463	133.97
465.669	99.16
465.874	82.77
466.079	-13.48
466.285	213.84
466.49	164.69
466.695	140.12
466.901	78.68
467.106	230.23
467.311	166.74
467.516	127.83
467.722	252.75
467.927	242.51
468.132	45.91
468.338	320.34
468.543	279.38
468.748	123.73
468.953	64.34
469.158	238.42
469.364	88.92
469.569	340.82
469.774	170.83
469.979	443.21
470.184	146.26
470.389	394.06
470.594	199.51
470.8	484.17
471.005	166.74
471.21	617.29
471.415	142.16
471.62	404.3
471.825	285.52
472.03	349.01
472.235	447.31
472.44	449.36
472.645	310.1
472.85	496.46
473.055	494.41
473.26	549.71
473.465	232.27
473.67	590.67
473.875	510.8
474.08	869.19
474.285	242.51
474.49	748.36
474.695	314.19
474.899	490.32
475.104	529.23
475.309	586.57
475.514	281.43
475.719	1211.2
475.924	555.85
476.128	533.33
476.333	824.14
476.538	799.56
476.743	232.27
476.948	963.4
477.152	625.48
477.357	910.15
477.562	555.85
477.767	914.25
477.971	504.65
478.176	979.78
478.381	502.61
478.585	844.62
478.79	375.63
478.995	1043.27
479.199	820.04
479.404	879.43
479.609	660.3
479.813	1069.89
480.018	910.15
480.223	1420.1
480.427	1157.96
480.632	1379.14
480.836	1254.21
481.041	2063.16
481.245	1235.78
481.45	1243.97
481.654	1080.13
481.859	1583.93
482.063	1432.38
482.268	1473.34
482.472	1459.01
482.677	1469.25
482.881	1323.84
483.086	1196.87
483.29	1264.45
483.495	1479.49
483.699	1416
483.903	1592.13
484.108	1100.61
484.312	2110.26
484.517	3779.36
484.721	3037.99
484.925	1737.53
485.13	2286.39
485.334	1413.95
485.538	1923.9
485.743	1651.52
485.947	1585.98
486.151	1502.01
486.355	1829.69
486.56	1827.64
486.764	1921.85
486.968	1497.92
487.172	1391.42
487.377	1409.86
487.581	1524.54
487.785	1483.58
487.989	2573.1
488.193	1956.66
488.397	2245.43
488.602	2155.32
488.806	3293.99
489.01	2276.15
489.214	1735.48
489.418	1770.3
489.622	2249.52
489.826	1416
490.03	2179.89
490.234	1807.16
490.438	1942.33
490.642	1555.26
490.846	1553.21
491.05	1497.92
491.254	2122.55
491.458	1229.63
491.662	2083.64
491.866	1639.23
492.07	1618.75
492.274	1497.92
492.478	2134.84
492.682	1260.35
492.886	1760.06
493.09	1821.5
493.294	2050.87
493.498	1502.01
493.701	2292.53
493.905	1117
494.109	2192.18
494.313	1600.32
494.517	2153.27
494.721	1456.96
494.924	1821.5
495.128	1438.53
495.332	2194.23
495.536	1559.36
495.739	1968.95
495.943	1477.44
496.147	2063.16
496.351	1209.15
496.554	2315.06
496.758	1325.89
496.962	1821.5
497.165	1108.8
497.369	1954.62
497.573	1243.97
497.776	2327.35
497.98	1559.36
498.184	2165.56
498.387	2220.85
498.591	2054.97
498.794	1291.07
498.998	1850.17
499.202	1135.43
499.405	1968.95
499.609	1274.69
499.812	1721.15
500.016	1413.95
500.219	2417.46
500.423	2081.59
500.626	3560.22
500.83	2515.76
501.033	2876.2
501.237	1334.08
501.44	3431.2
501.643	2450.22
501.847	2282.29
502.05	1731.39
502.254	2351.92
502.457	1573.69
502.66	2370.35
502.864	1256.26
503.067	1772.35
503.271	1925.94
503.474	1444.67
503.677	1360.7
503.88	2138.93
504.084	1286.98
504.287	1622.84
504.49	1688.38
504.694	1975.1
504.897	1211.2
505.1	2757.42
505.303	3703.58
505.507	3513.12
505.71	2712.36
505.913	2751.28
506.116	1553.21
506.319	2607.92
506.522	1788.73
506.726	2564.91
506.929	3033.9
507.132	3230.5
507.335	1649.47
507.538	1866.55
507.741	1559.36
507.944	1989.43
508.147	1381.18
508.35	2118.45
508.553	1692.48
508.756	1858.36
508.959	1207.11
509.163	2179.89
509.366	998.21
509.569	2267.95
509.771	1745.72
509.974	1823.55
510.177	2054.97
510.38	2720.56
510.583	1350.46
510.786	1942.33
510.989	2063.16
511.192	1837.88
511.395	1594.17
511.598	2102.07
511.801	1278.79
512.004	2378.55
512.206	1430.34
512.409	2362.16
512.612	1497.92
512.815	2183.99
513.018	2145.08
513.22	2503.47
513.423	1016.65
513.626	2196.28
513.829	1694.52
514.032	1880.89
514.234	2347.83
514.437	2270
514.64	1764.15
514.842	2452.27
515.045	1555.26
515.248	2270
515.45	1876.79
515.653	1870.65
515.856	2081.59
516.058	1977.14
516.261	1868.6
516.464	1706.81
516.666	1057.61
516.869	2454.32
517.071	2014.01
517.274	2114.36
517.477	1653.56
517.679	2724.65
517.882	1329.99
518.084	2526
518.287	2073.4
518.489	2571.05
518.692	2804.52
518.894	2370.35
519.097	2689.84
519.299	2708.27
519.501	2175.8
519.704	2798.38
519.906	2044.73
520.109	2708.27
520.311	2284.34
520.514	3390.24
520.716	2413.36
520.918	2569.01
521.121	2270
521.323	2757.42
521.525	1596.22
521.728	2550.57
521.93	1938.23
522.132	3574.56
522.335	3398.43
522.537	3193.64
522.739	1452.86
522.941	2444.08
523.144	2212.66
523.346	2239.28
523.548	2214.71
523.75	2573.1
523.952	1821.5
524.155	2382.64
524.357	1303.36
524.559	2114.36
524.761	1647.42
524.963	2399.02
525.165	2304.82
525.368	2943.78
525.57	2024.25
525.772	3037.99
525.974	2046.77
526.176	1948.47
526.378	1463.1
526.58	1772.35
526.782	2063.16
526.984	2300.72
527.186	1504.06
527.388	1977.14
527.59	1393.47
527.792	1911.61
527.994	1428.29
528.196	2069.3
528.398	1571.65
528.6	2347.83
528.802	1018.69
529.004	2327.35
529.206	1059.65
529.408	2814.76
529.609	1708.86
529.811	2065.21
530.013	1927.99
530.215	2026.29
530.417	1499.97
530.619	2386.74
530.821	1508.16
531.022	2183.99
531.224	1377.09
531.426	2272.05
531.628	1776.44
531.829	1764.15
532.031	1620.8
532.233	1979.19
532.435	1289.03
532.636	1678.14
532.838	1643.32
533.04	1655.61
533.241	1858.36
533.443	1743.67
533.645	1684.28
533.846	1923.9
534.048	1508.16
534.25	2167.6
534.451	1532.73
534.653	2026.29
534.855	1561.41
535.056	1817.4
535.258	1749.82
535.459	2005.81
535.661	809.8
535.862	1973.05
536.064	926.54
536.265	1786.68
536.467	1157.96
536.668	1196.87
536.87	1301.31
537.071	1655.61
537.273	1575.74
537.474	2212.66
537.676	1372.99
537.877	1653.56
538.078	762.7
538.28	1246.02
538.481	1438.53
538.683	1651.52
538.884	1010.5
539.085	1286.98
539.287	1493.82
539.488	1995.57
539.689	412.5
539.891	2073.4
540.092	1110.85
540.293	1516.35
540.495	1741.63
540.696	1145.67
540.897	1301.31
541.098	1372.99
541.3	1301.31
541.501	1927.99
541.702	783.18
541.903	1401.66
542.104	1381.18
542.306	1145.67
542.507	1360.7
542.708	1653.56
542.909	969.54
543.11	1960.76
543.311	684.87
543.512	1635.13
543.713	992.07
543.915	1327.94
544.116	1008.45
544.317	1301.31
544.518	1176.39
544.719	1174.34
544.92	1170.24
545.121	1282.88
545.322	1215.3
545.523	1878.84
545.724	1141.57
545.925	1708.86
546.126	1004.36
546.327	1858.36
546.528	1790.78
546.729	1153.86
546.929	1221.44
547.13	1653.56
547.331	1149.76
547.532	1946.42
547.733	1108.8
547.934	1620.8
548.135	736.07
548.336	1469.25
548.536	1243.97
548.737	1694.52
548.938	1461.06
549.139	1770.3
549.34	1237.83
549.54	1833.79
549.741	1434.43
549.942	1932.09
550.143	684.87
550.343	1739.58
550.544	1045.32
550.745	1596.22
550.945	2698.03
551.146	1755.96
551.347	1184.58
551.547	1700.67
551.748	934.73
551.949	1780.54
552.149	1162.05
552.35	1422.14
552.551	1010.5
552.751	1440.58
552.952	1067.85
553.152	1014.6
553.353	1481.53
553.553	1577.79
553.754	1082.18
553.954	1620.8
554.155	594.76
554.356	1399.62
554.556	959.3
554.756	1653.56
554.957	1254.21
555.157	1160
555.358	1590.08
555.558	1157.96
555.759	1160
555.959	1250.11
556.159	979.78
556.36	2140.98
556.56	654.16
556.761	2063.16
556.961	1477.44
557.161	1909.56
557.362	1399.62
557.562	2020.15
557.762	1344.32
557.963	1663.8
558.163	1403.71
558.363	1145.67
558.563	1344.32
558.764	1569.6
558.964	1305.41
559.164	1663.8
559.364	1190.72
559.565	1643.32
559.765	1862.46
559.965	1334.08
560.165	1538.88
560.365	1825.59
560.565	1696.57
560.766	1780.54
560.966	1272.64
561.166	1442.62
561.366	840.52
561.566	2044.73
561.766	979.78
561.966	1483.58
562.166	1246.02
562.366	1768.25
562.566	1418.05
562.766	1338.18
562.966	1397.57
563.166	1606.46
563.366	1151.81
563.566	1487.68
563.766	1127.24
563.966	1983.29
564.166	1233.73
564.366	2288.43
564.566	1194.82
564.766	1803.07
564.966	1082.18
565.166	1887.03
565.366	1252.16
565.565	1243.97
565.765	932.68
565.965	693.07
566.165	846.66
566.365	1626.94
566.565	1084.23
566.764	1579.84
566.964	953.16
567.164	1887.03
567.364	904.01
567.564	1444.67
567.763	992.07
567.963	545.61
568.163	1559.36
568.362	1493.82
568.562	852.81
568.762	1272.64
568.961	1233.73
569.161	1248.07
569.361	662.35
569.56	1993.53
569.76	496.46
569.96	1446.72
570.159	670.54
570.359	1205.06
570.558	1014.6
570.758	1139.52
570.958	820.04
571.157	1024.84
571.357	856.9
571.556	830.28
571.756	938.82
571.955	1133.38
572.155	572.24
572.354	1784.63
572.554	566.09
572.753	1295.17
572.953	1028.93
573.152	1196.87
573.351	740.17
573.551	1717.05
573.75	828.23
573.95	602.96
574.149	607.05
574.348	1198.92
574.548	985.93
574.747	1076.04
574.946	877.38
575.146	1446.72
575.345	658.25
575.544	959.3
575.744	625.48
575.943	1276.74
576.142	752.46
576.342	1282.88
576.541	781.13
576.74	1026.89
576.939	920.39
577.138	510.8
577.338	764.75
577.537	846.66
577.736	897.86
577.935	881.48
578.134	484.17
578.333	910.15
578.533	795.47
578.732	652.11
578.931	652.11
579.13	1422.14
579.329	326.48
579.528	1522.49
579.727	682.83
579.926	1110.85
580.125	838.47
580.324	799.56
580.523	664.4
580.722	838.47
580.921	881.48
581.12	824.14
581.319	478.03
581.518	924.49
581.717	533.33
581.916	609.1
582.115	502.61
582.314	736.07
582.513	652.11
582.712	1114.95
582.911	232.27
583.109	1270.59
583.308	330.58
583.507	1182.53
583.706	629.58
583.905	1143.62
584.104	672.59
584.302	789.32
584.501	398.16
584.7	709.45
584.899	529.23
585.098	654.16
585.296	758.6
585.495	666.44
585.694	641.87
585.892	774.99
586.091	451.41
586.29	678.73
586.488	551.76
586.687	1145.67
586.886	588.62
587.084	955.21
587.283	502.61
587.482	940.87
587.68	629.58
587.879	983.88
588.077	367.44
588.276	787.27
588.475	553.8
588.673	828.23
588.872	1162.05
589.07	748.36
589.269	850.76
589.467	879.43
589.666	727.88
589.864	834.38
590.063	797.51
590.261	854.86
590.46	834.38
590.658	875.34
590.857	658.25
591.055	1209.15
591.253	621.39
591.452	1196.87
591.65	422.73
591.848	850.76
592.047	332.62
592.245	1018.69
592.444	402.26
592.642	572.24
592.84	291.66
593.038	633.68
593.237	805.71
593.435	645.96
593.633	590.67
593.832	551.76
594.03	1526.59
594.228	691.02
594.426	645.96
594.624	443.21
594.823	228.18
595.021	799.56
595.219	332.62
595.417	654.16
595.615	443.21
595.813	664.4
596.012	326.48
596.21	777.03
596.408	508.75
596.606	414.54
596.804	387.92
597.002	494.41
597.2	422.73
597.398	883.53
597.596	336.72
597.794	680.78
597.992	492.37
598.19	815.94
598.388	285.52
598.586	871.24
598.784	293.71
598.982	842.57
599.18	541.52
599.378	537.42
599.576	412.5
599.774	684.87
599.972	500.56
600.17	588.62
600.368	506.7
600.565	879.43
600.763	459.6
600.961	387.92
601.159	580.43
601.357	506.7
601.555	615.24
601.752	979.78
601.95	570.19
602.148	398.16
602.346	1123.14
602.544	1448.77
602.741	975.69
602.939	1465.15
603.137	598.86
603.334	1188.68
603.532	715.59
603.73	1598.27
603.927	916.3
604.125	1160
604.323	721.74
604.52	1788.73
604.718	580.43
604.916	1499.97
605.113	582.48
605.311	1538.88
605.508	461.65
605.706	1344.32
605.904	502.61
606.101	1039.17
606.299	445.26
606.496	947.01
606.694	537.42
606.891	959.3
607.089	287.57
607.286	717.64
607.484	432.97
607.681	418.64
607.879	613.2
608.076	551.76
608.273	445.26
608.471	799.56
608.668	418.64
608.866	400.21
609.063	578.38
609.26	750.41
609.458	471.89
609.655	824.14
609.852	549.71
610.05	889.67
610.247	453.45
610.444	605
610.642	410.45
610.839	635.72
611.036	494.41
611.233	539.47
611.431	568.14
611.628	480.08
611.825	398.16
612.022	516.94
612.22	342.86
612.417	490.32
612.614	312.14
612.811	437.07
613.008	291.66
613.205	295.76
613.402	328.53
613.6	791.37
613.797	342.86
613.994	596.81
614.191	394.06
614.388	488.27
614.585	168.79
614.782	639.82
614.979	35.67
615.176	377.68
615.373	123.73
615.57	344.91
615.767	107.35
615.964	406.35
616.161	127.83
616.358	375.63
616.555	185.17
616.752	193.36
616.949	107.35
617.146	271.19
617.343	47.96
617.539	279.38
617.736	105.3
617.933	164.69
618.13	158.55
618.327	426.83
618.524	23.38
618.721	244.56
618.917	37.72
619.114	310.1
619.311	160.59
619.508	461.65
619.704	115.54
619.901	140.12
620.098	127.83
620.295	162.64
620.491	97.11
620.688	275.28
620.885	164.69
621.081	244.56
621.278	62.29
621.475	295.76
621.671	183.12
621.868	203.6
622.065	164.69
622.261	246.61
622.458	101.2
622.655	160.59
622.851	142.16
623.048	103.25
623.244	115.54
623.441	11.09
623.637	80.72
623.834	117.59
624.03	68.44
624.227	211.79
624.423	201.55
624.62	117.59
624.816	15.19
625.013	158.55
625.209	50
625.406	232.27
625.602	2.9
625.798	209.75
625.995	0.85
626.191	207.7
626.388	105.3
626.584	199.51
626.78	133.97
626.977	170.83
627.173	56.15
627.369	246.61
627.566	58.2
627.762	58.2
627.958	54.1
628.154	172.88
628.351	150.36
628.547	291.66
628.743	37.72
628.939	275.28
629.136	93.01
629.332	172.88
629.528	60.24
629.724	78.68
629.92	62.29
630.116	88.92
630.313	90.96
630.509	127.83
630.705	33.62
630.901	0.85
631.097	78.68
631.293	31.57
631.489	0.85
631.685	109.4
631.881	127.83
632.077	74.58
632.273	82.77
632.469	23.38
632.665	-29.87
632.861	37.72
633.057	-27.82
633.253	74.58
633.449	19.29
633.645	95.06
633.841	72.53
634.037	64.34
634.233	101.2
634.429	19.29
634.625	-21.67
634.821	50
635.017	68.44
635.212	19.29
635.408	39.76
635.604	-15.53
635.8	-17.58
635.996	56.15
636.191	35.67
636.387	58.2
636.583	99.16
636.779	66.39
636.975	50
637.17	58.2
637.366	29.52
637.562	74.58
637.757	15.19
637.953	50
638.149	-64.68
638.345	88.92
638.54	105.3
638.736	80.72
638.931	66.39
639.127	52.05
639.323	23.38
639.518	162.64
639.714	-31.91
639.909	68.44
640.105	23.38
640.301	62.29
640.496	-70.83
640.692	127.83
640.887	35.67
641.083	50
641.278	60.24
641.474	136.02
641.669	68.44
641.865	80.72
642.06	93.01
642.256	35.67
642.451	23.38
642.646	41.81
642.842	56.15
643.037	72.53
643.233	-52.39
643.428	21.33
643.623	27.48
643.819	97.11
644.014	-13.48
644.209	43.86
644.405	27.48
644.6	84.82
644.795	41.81
644.99	66.39
645.186	-19.63
645.381	-64.68
645.576	82.77
645.771	7
645.967	11.09
646.162	-9.39
646.357	-27.82
646.552	25.43
646.747	19.29
646.943	-17.58
647.138	-29.87
647.333	60.24
647.528	-72.87
647.723	150.36
647.918	-25.77
648.113	-1.19
648.308	111.44
648.504	62.29
648.699	0.85
648.894	-44.2
649.089	-74.92
649.284	31.57
649.479	-40.11
649.674	-42.15
649.869	-60.59
650.064	-72.87
650.259	-56.49
650.454	13.14
650.649	-79.02
650.844	-7.34
651.038	-27.82
651.233	15.19
651.428	62.29
651.623	-15.53
651.818	25.43
652.013	19.29
652.208	-93.35
652.403	-109.74
652.597	29.52
652.792	31.57
652.987	97.11
653.182	66.39
653.377	11.09
653.571	13.14
653.766	-38.06
653.961	-70.83
654.156	-33.96
654.35	115.54
654.545	-72.87
654.74	-74.92
654.935	31.57
655.129	25.43
655.324	97.11
655.519	-31.91
655.713	13.14
655.908	-21.67
656.102	35.67
656.297	-29.87
656.492	52.05
656.686	56.15
656.881	-5.29
657.075	-17.58
657.27	-70.83
657.464	68.44
657.659	41.81
657.854	-11.43
658.048	11.09
658.243	-103.59
658.437	-74.92
658.631	-101.55
658.826	-40.11
659.02	-48.3
659.215	-58.54
659.409	-52.39
659.604	-25.77
659.798	9.05
659.992	-15.53
660.187	-3.24
660.381	-5.29
660.576	7
660.77	-7.34
660.964	-5.29
661.159	41.81
661.353	88.92
661.547	-11.43
661.742	-21.67
661.936	140.12
662.13	21.33
662.324	-87.21
662.519	115.54
662.713	43.86
662.907	-17.58
663.101	-52.39
663.295	66.39
663.49	-48.3
663.684	-25.77
663.878	-46.25
664.072	-54.44
664.266	-31.91
664.46	-89.26
664.654	-25.77
664.849	-50.35
665.043	-60.59
665.237	21.33
665.431	2.9
665.625	-1.19
665.819	41.81
666.013	-50.35
666.207	-38.06
666.401	43.86
666.595	-19.63
666.789	-66.73
666.983	-93.35
667.177	29.52
667.371	-21.67
667.565	-138.41
667.759	66.39
667.953	-54.44
668.147	-46.25
668.34	37.72
668.534	-44.2
668.728	-87.21
668.922	29.52
669.116	-31.91
669.31	62.29
669.504	-1.19
669.697	-33.96
669.891	-40.11
670.085	-42.15
670.279	-44.2
670.473	-99.5
670.666	68.44
670.86	-72.87
671.054	11.09
671.248	-154.79
671.441	13.14
671.635	31.57
671.829	-89.26
672.022	-48.3
672.216	-44.2
672.41	-68.78
672.603	-54.44
672.797	-31.91
672.99	7
673.184	-19.63
673.378	50
673.571	-19.63
673.765	13.14
673.958	50
674.152	15.19
674.345	-40.11
674.539	39.76
674.733	-25.77
674.926	142.16
675.12	-19.63
675.313	37.72
675.506	-5.29
675.7	25.43
675.893	-11.43
676.087	-52.39
676.28	-62.63
676.474	-36.01
676.667	-103.59
676.86	19.29
677.054	62.29
677.247	19.29
677.441	2.9
677.634	-40.11
677.827	-38.06
678.02	50
678.214	15.19
678.407	-23.72
678.6	-105.64
678.794	-126.12
678.987	-79.02
679.18	-85.16
679.373	-56.49
679.567	23.38
679.76	13.14
679.953	-21.67
680.146	-124.07
680.339	-40.11
680.533	-52.39
680.726	-66.73
680.919	-89.26
681.112	-85.16
681.305	-119.98
681.498	-23.72
681.691	-58.54
681.884	-17.58
682.077	13.14
682.271	-72.87
682.464	-3.24
682.657	-17.58
682.85	-15.53
683.043	-36.01
683.236	9.05
683.429	17.24
683.622	76.63
683.815	47.96
684.008	23.38
684.201	7
684.393	-1.19
684.586	56.15
684.779	-54.44
684.972	27.48
685.165	-1.19
685.358	140.12
685.551	2.9
685.744	99.16
685.937	7
686.129	-89.26
686.322	-62.63
686.515	-76.97
686.708	-91.31
686.901	-29.87
687.093	33.62
687.286	-40.11
687.479	-31.91
687.672	-42.15
687.864	7
688.057	21.33
688.25	37.72
688.442	19.29
688.635	82.77
688.828	-3.24
689.02	-25.77
689.213	-21.67
689.406	-23.72
689.598	33.62
689.791	17.24
689.984	2.9
690.176	35.67
690.369	-15.53
690.561	50
690.754	-97.45
690.946	90.96
691.139	52.05
691.331	17.24
691.524	-19.63
691.716	93.01
691.909	-66.73
692.101	-58.54
692.294	107.35
692.486	-33.96
692.679	19.29
692.871	-13.48
693.063	41.81
693.256	-17.58
693.448	47.96
693.641	7
693.833	7
694.025	-21.67
694.218	64.34
694.41	-91.31
694.602	37.72
694.795	99.16
694.987	2396.98
695.179	9044.68
695.372	24986.07
695.564	31971.69
695.756	22786.55
695.948	17805.89
696.14	11291.31
696.333	6996.71
696.525	4627.21
696.717	1223.49
696.909	1319.75
697.101	156.5
697.294	86.87
697.486	99.16
697.678	27.48
697.87	35.67
698.062	7
698.254	45.91
698.446	-19.63
698.638	7
698.83	11.09
699.022	39.76
699.215	17.24
699.407	25.43
699.599	-40.11
699.791	-3.24
699.983	-144.55
700.175	27.48
700.367	-25.77
700.558	43.86
700.75	-27.82
700.942	-5.29
701.134	-40.11
701.326	-54.44
701.518	-113.83
701.71	-58.54
701.902	127.83
702.094	146.26
702.286	-79.02
702.477	58.2
702.669	39.76
702.861	-62.63
703.053	47.96
703.245	-54.44
703.436	41.81
703.628	0.85
703.82	-19.63
704.012	39.76
704.203	-29.87
704.395	76.63
704.587	23.38
704.779	54.1
704.97	660.3
705.162	1880.89
705.354	10975.92
705.545	22821.37
705.737	27761.07
705.929	23859.69
706.12	16007.78
706.312	11221.67
706.503	7019.24
706.695	3412.77
706.887	3060.52
707.078	602.96
707.27	488.27
707.461	131.92
707.653	66.39
707.844	41.81
708.036	56.15
708.227	174.93
708.419	-48.3
708.61	33.62
708.802	7
708.993	-21.67
709.185	-11.43
709.376	4.95
709.567	-36.01
709.759	-81.07
709.95	-23.72
710.141	31.57
710.333	15.19
710.524	-68.78
710.716	-33.96
710.907	-70.83
711.098	17.24
711.289	62.29
711.481	-81.07
711.672	60.24
711.863	74.58
712.055	-38.06
712.246	13.14
712.437	-33.96
712.628	-79.02
712.82	-38.06
713.011	-38.06
713.202	9.05
713.393	-48.3
713.584	113.49
713.775	351.06
713.967	0.85
714.158	-7.34
714.349	-21.67
714.54	-9.39
714.731	45.91
714.922	-11.43
715.113	25.43
715.304	-9.39
715.495	-1.19
715.686	47.96
715.877	-15.53
716.068	-11.43
716.259	-23.72
716.45	-38.06
716.641	25.43
716.832	39.76
717.023	29.52
717.214	-197.8
717.405	-156.84
717.596	-54.44
717.787	54.1
717.978	-17.58
718.169	11.09
718.36	-13.48
718.55	11.09
718.741	2.9
718.932	4.95
719.123	-103.59
719.314	13.14
719.505	25.43
719.695	101.2
719.886	-23.72
720.077	-62.63
720.268	-72.87
720.458	47.96
720.649	-66.73
720.84	58.2
721.031	27.48
721.221	43.86
721.412	-64.68
721.603	-50.35
721.793	-81.07
721.984	27.48
722.175	66.39
722.365	-95.4
722.556	-17.58
722.746	21.33
722.937	-23.72
723.128	58.2
723.318	33.62
723.509	-29.87
723.699	-124.07
723.89	7
724.08	-87.21
724.271	19.29
724.461	-7.34
724.652	-5.29
724.842	-48.3
725.033	-113.83
725.223	-27.82
725.414	-62.63
725.604	-62.63
725.794	78.68
725.985	37.72
726.175	2231.09
726.366	2542.38
726.556	1721.15
726.746	512.85
726.937	129.88
727.127	25.43
727.317	129.88
727.508	50
727.698	80.72
727.888	-62.63
728.079	-132.26
728.269	52.05
728.459	-38.06
728.649	-56.49
728.84	17.24
729.03	33.62
729.22	-74.92
729.41	-25.77
729.6	-58.54
729.791	58.2
729.981	156.5
730.171	2.9
730.361	-9.39
730.551	-19.63
730.741	33.62
730.931	-60.59
731.121	-15.53
731.311	47.96
731.502	99.16
731.692	-25.77
731.882	-17.58
732.072	-54.44
732.262	109.4
732.452	-54.44
732.642	15.19
732.832	-83.11
733.022	-7.34
733.212	-42.15
733.402	2.9
733.591	-31.91
733.781	-1.19
733.971	-50.35
734.161	11.09
734.351	33.62
734.541	-27.82
734.731	39.76
734.921	-38.06
735.111	19.29
735.3	-44.2
735.49	-42.15
735.68	-64.68
735.87	129.88
736.06	33.62
736.249	449.36
736.439	432.97
736.629	1467.2
736.819	4545.3
737.008	11256.49
737.198	24822.23
737.388	42578.12
737.577	37906.71
737.767	27314.61
737.957	23032.31
738.146	15901.28
738.336	10105.53
738.526	8667.86
738.715	4322.07
738.905	3029.8
739.094	1733.43
739.284	336.72
739.474	152.4
739.663	115.54
739.853	0.85
740.042	-48.3
740.232	-1.19
740.421	-3.24
740.611	29.52
740.8	17.24
740.99	-19.63
741.179	2.9
741.369	-46.25
741.558	47.96
741.748	54.1
741.937	-7.34
742.126	-40.11
742.316	-23.72
742.505	-58.54
742.695	-46.25
742.884	-5.29
743.073	54.1
743.263	9.05
743.452	-17.58
743.641	15.19
743.831	37.72
744.02	37.72
744.209	-5.29
744.398	-107.69
744.588	43.86
744.777	35.67
744.966	-113.83
745.155	0.85
745.345	-25.77
745.534	70.48
745.723	-11.43
745.912	43.86
746.101	-5.29
746.29	-29.87
746.48	-40.11
746.669	88.92
746.858	-122.02
747.047	-23.72
747.236	13.14
747.425	-13.48
747.614	35.67
747.803	-7.34
747.992	-29.87
748.181	-83.11
748.37	64.34
748.559	191.31
748.748	693.07
748.937	2032.44
749.126	10144.44
749.315	17789.51
749.504	27490.74
749.693	30919.04
749.882	25219.54
750.071	24721.88
750.26	30181.77
750.449	34623.81
750.638	41146.59
750.826	37148.96
751.015	26708.41
751.204	22290.95
751.393	17982.02
751.582	10945.2
751.771	9450.18
751.959	5901.05
752.148	3715.87
752.337	2411.31
752.526	1061.7
752.714	131.92
752.903	119.64
753.092	50
753.281	4.95
753.469	-21.67
753.658	-62.63
753.847	-27.82
754.035	27.48
754.224	17.24
754.413	-9.39
754.601	39.76
754.79	-19.63
754.979	27.48
755.167	-9.39
755.356	11.09
755.544	17.24
755.733	62.29
755.921	0.85
756.11	-17.58
756.298	-13.48
756.487	2.9
756.675	-74.92
756.864	11.09
757.052	-72.87
757.241	111.44
757.429	-107.69
757.618	56.15
757.806	-103.59
757.995	-11.43
758.183	-56.49
758.371	72.53
758.56	-109.74
758.748	-42.15
758.937	-93.35
759.125	82.77
759.313	78.68
759.502	-74.92
759.69	-68.78
759.878	-38.06
760.066	74.58
760.255	-1.19
760.443	9.05
760.631	-9.39
760.819	19.29
761.008	-101.55
761.196	152.4
761.384	299.86
761.572	768.84
761.761	4231.96
761.949	9110.22
762.137	14629.49
762.325	34253.13
762.513	54319.13
762.701	60809.14
762.889	63420.3
763.077	53839.9
763.266	39076.1
763.454	34552.13
763.642	26755.52
763.83	19313.2
764.018	15788.64
764.206	11885.22
764.394	7285.48
764.582	6507.25
764.77	3453.73
764.958	1225.54
765.146	576.33
765.334	301.9
765.522	78.68
765.71	-29.87
765.898	-21.67
766.085	-38.06
766.273	50
766.461	11.09
766.649	52.05
766.837	-181.42
767.025	-21.67
767.213	56.15
767.401	-70.83
767.588	-29.87
767.776	-66.73
767.964	0.85
768.152	27.48
768.339	-66.73
768.527	23.38
768.715	50
768.903	29.52
769.09	-46.25
769.278	-111.78
769.466	-29.87
769.654	-60.59
769.841	-48.3
770.029	-70.83
770.217	-11.43
770.404	109.4
770.592	27.48
770.779	-31.91
770.967	1366.85
771.155	4225.81
771.342	15852.13
771.53	32473.45
771.717	32190.83
771.905	22950.39
772.092	22497.79
772.28	15739.49
772.467	10533.56
772.655	7162.6
772.842	4956.94
773.03	1502.01
773.217	797.51
773.405	176.98
773.592	-85.16
773.78	9.05
773.967	11.09
774.154	13.14
774.342	50
774.529	21.33
774.717	21.33
774.904	35.67
775.091	-19.63
775.279	-23.72
775.466	-87.21
775.653	29.52
775.841	-72.87
776.028	13.14
776.215	-40.11
776.402	-87.21
776.59	-5.29
776.777	95.06
776.964	-3.24
777.151	-1.19
777.338	-50.35
777.526	70.48
777.713	-36.01
777.9	-134.31
778.087	-29.87
778.274	-19.63
778.461	-15.53
778.649	0.85
778.836	-97.45
779.023	-29.87
779.21	156.5
779.397	-33.96
779.584	64.34
779.771	17.24
779.958	-13.48
780.145	15.19
780.332	15.19
780.519	-70.83
780.706	-11.43
780.893	-23.72
781.08	-81.07
781.267	21.33
781.454	13.14
781.641	13.14
781.828	7
782.015	43.86
782.202	109.4
782.388	17.24
782.575	-40.11
782.762	11.09
782.949	86.87
783.136	156.5
783.323	29.52
783.509	35.67
783.696	17.24
783.883	58.2
784.07	21.33
784.257	-23.72
784.443	-5.29
784.63	-19.63
784.817	-11.43
785.004	-58.54
785.19	-60.59
785.377	95.06
785.564	-64.68
785.75	68.44
785.937	-21.67
786.124	21.33
786.31	-40.11
786.497	13.14
786.683	-38.06
786.87	-21.67
787.057	17.24
787.243	56.15
787.43	-60.59
787.616	-33.96
787.803	88.92
787.989	-23.72
788.176	-150.7
788.362	-134.31
788.549	-52.39
788.735	-31.91
788.922	50
789.108	-31.91
789.295	-56.49
789.481	60.24
789.668	11.09
789.854	19.29
790.04	-46.25
790.227	-95.4
790.413	11.09
790.599	-99.5
790.786	31.57
790.972	9.05
791.158	37.72
791.345	-21.67
791.531	-70.83
791.717	50
791.904	-48.3
792.09	-93.35
792.276	-76.97
792.462	0.85
792.649	-9.39
792.835	-17.58
793.021	-27.82
793.207	54.1
793.393	111.44
793.58	140.12
793.766	4805.39
793.952	14060.16
794.138	22872.57
794.324	26091.98
794.51	24586.72
794.696	16388.7
794.882	12530.33
795.069	9767.62
795.255	6937.32
795.441	2820.91
795.627	2415.41
795.813	523.09
795.999	422.73
796.185	103.25
796.371	185.17
796.557	15.19
796.743	43.86
796.929	84.82
797.115	-27.82
797.3	-58.54
797.486	21.33
797.672	58.2
797.858	-48.3
798.044	35.67
798.23	-70.83
798.416	-46.25
798.602	-3.24
798.788	-40.11
798.973	-109.74
799.159	121.68
799.345	7
799.531	226.13
799.717	2018.1
799.902	7066.35
800.088	14928.5
800.274	14789.24
800.46	14742.13
800.645	21563.92
800.831	32162.15
801.017	29725.07
801.202	22524.41
801.388	20484.64
801.574	15688.29
801.759	9444.04
801.945	8045.27
802.131	5225.22
802.316	3056.42
802.502	979.78
802.687	908.1
802.873	213.84
803.058	152.4
803.244	166.74
803.43	50
803.615	105.3
803.801	88.92
803.986	-44.2
804.172	-64.68
804.357	23.38
804.543	-50.35
804.728	-7.34
804.913	-21.67
805.099	52.05
805.284	39.76
805.47	-3.24
805.655	-115.88
805.84	47.96
806.026	86.87
806.211	-15.53
806.397	-1.19
806.582	68.44
806.767	19.29
806.953	-1.19
807.138	72.53
807.323	97.11
807.508	2.9
807.694	70.48
807.879	62.29
808.064	-11.43
808.249	43.86
808.435	103.25
808.62	504.65
808.805	660.3
808.99	2353.97
809.175	5223.17
809.361	10400.44
809.546	15385.19
809.731	28160.42
809.916	40777.96
810.101	37921.04
810.286	32465.25
810.471	37327.13
810.656	43659.45
810.841	50311.25
811.026	59013.07
811.211	63836.04
811.396	58777.56
811.581	47786.11
811.766	42260.69
811.951	38383.88
812.136	29594
812.321	24177.12
812.506	21434.89
812.691	17625.67
812.876	12913.3
813.061	10767.03
813.246	8504.02
813.431	6058.74
813.616	2886.44
813.801	2538.29
813.986	1563.45
814.17	531.28
814.355	-15.53
814.54	86.87
814.725	50
814.91	78.68
815.094	105.3
815.279	-11.43
815.464	-5.29
815.649	129.88
815.833	125.78
816.018	-56.49
816.203	-5.29
816.388	19.29
816.572	56.15
816.757	9.05
816.942	-38.06
817.126	-29.87
817.311	9.05
817.496	-60.59
817.68	35.67
817.865	-13.48
818.049	-31.91
818.234	41.81
818.419	-9.39
818.603	15.19
818.788	-29.87
818.972	-19.63
819.157	-56.49
819.341	-93.35
819.526	4.95
819.71	-27.82
819.895	-3.24
820.079	-56.49
820.264	-21.67
820.448	11.09
820.633	-25.77
820.817	-17.58
821.001	-95.4
821.186	74.58
821.37	-23.72
821.554	-42.15
821.739	-7.34
821.923	-3.24
822.108	15.19
822.292	-19.63
822.476	-81.07
822.66	-60.59
822.845	-27.82
823.029	52.05
823.213	37.72
823.398	-11.43
823.582	11.09
823.766	60.24
823.95	-7.34
824.134	17.24
824.319	-66.73
824.503	-13.48
824.687	-101.55
824.871	-17.58
825.055	-9.39
825.239	80.72
825.423	-42.15
825.608	224.08
825.792	754.51
825.976	6423.28
826.16	12505.75
826.344	15485.55
826.528	11860.64
826.712	8643.28
826.896	5608.19
827.08	4573.97
827.264	1565.5
827.448	1045.32
827.632	168.79
827.816	99.16
828	-15.53
828.184	23.38
828.368	9.05
828.552	25.43
828.736	56.15
828.919	136.02
829.103	27.48
829.287	-1.19
829.471	33.62
829.655	-58.54
829.839	-15.53
830.023	-38.06
830.206	31.57
830.39	-31.91
830.574	-97.45
830.758	-60.59
830.941	41.81
831.125	-5.29
831.309	-42.15
831.493	-36.01
831.676	80.72
831.86	-54.44
832.044	45.91
832.227	62.29
832.411	45.91
832.595	52.05
832.778	99.16
832.962	-11.43
833.146	-1.19
833.329	-36.01
833.513	54.1
833.696	9.05
833.88	-33.96
834.064	-50.35
834.247	-64.68
834.431	80.72
834.614	107.35
834.798	-52.39
834.981	-15.53
835.165	-11.43
835.348	39.76
835.532	-27.82
835.715	-15.53
835.898	52.05
836.082	-15.53
836.265	-119.98
836.449	68.44
836.632	-29.87
836.815	41.81
836.999	4.95
837.182	-7.34
837.365	-27.82
837.549	-74.92
837.732	-76.97
837.915	31.57
838.099	-5.29
838.282	-103.59
838.465	-113.83
838.648	-13.48
838.832	29.52
839.015	-74.92
839.198	-11.43
839.381	-27.82
839.565	25.43
839.748	17.24
839.931	342.86
840.114	2261.81
840.297	6972.14
840.48	12896.91
840.663	21817.86
840.847	25647.57
841.03	23996.9
841.213	19575.34
841.396	17830.47
841.579	16147.04
841.762	15669.86
841.945	16306.78
842.128	21238.29
842.311	29002.14
842.494	32242.03
842.677	27163.06
842.86	22931.96
843.043	19575.34
843.226	16286.3
843.409	11618.98
843.592	9046.73
843.775	6107.9
843.958	4387.6
844.141	2556.72
844.323	1332.03
844.506	129.88
844.689	97.11
844.872	66.39
845.055	-17.58
845.238	-1.19
845.42	0.85
845.603	-54.44
845.786	82.77
845.969	-68.78
846.152	35.67
846.334	-11.43
846.517	-1.19
846.7	-11.43
846.883	-1.19
847.065	23.38
847.248	68.44
847.431	60.24
847.613	-11.43
847.796	31.57
847.979	-89.26
848.161	-5.29
848.344	39.76
848.526	52.05
848.709	-50.35
848.892	-19.63
849.074	33.62
849.257	2.9
849.439	-68.78
849.622	19.29
849.804	-109.74
849.987	11.09
850.169	56.15
850.352	86.87
850.534	-11.43
850.717	62.29
850.899	7
851.082	-19.63
851.264	-56.49
851.446	-15.53
851.629	-33.96
851.811	-27.82
851.994	938.82
852.176	4877.07
852.358	7287.53
852.541	5067.53
852.723	3855.13
852.905	1727.29
853.088	1043.27
853.27	43.86
853.452	39.76
853.635	80.72
853.817	-19.63
853.999	74.58
854.181	-74.92
854.363	-21.67
854.546	-183.46
854.728	-17.58
854.91	19.29
855.092	43.86
855.274	33.62
855.457	47.96
855.639	0.85
855.821	-130.22
856.003	-11.43
856.185	-42.15
856.367	-15.53
856.549	15.19
856.731	-158.89
856.913	-97.45
857.095	0.85
857.277	-113.83
857.459	13.14
857.641	-52.39
857.823	-52.39
858.005	-62.63
858.187	-31.91
858.369	-99.5
858.551	-91.31
858.733	27.48
858.915	-31.91
859.097	-40.11
859.279	-17.58
859.461	-7.34
859.643	-5.29
859.824	-58.54
860.006	-52.39
860.188	-70.83
860.37	-89.26
860.552	9.05
860.734	-27.82
860.915	-38.06
861.097	-27.82
861.279	-60.59
861.461	-107.69
861.642	47.96
861.824	-113.83
862.006	119.64
862.188	-11.43
862.369	9.05
862.551	68.44
862.733	-48.3
862.914	-66.73
863.096	0.85
863.278	41.81
863.459	-60.59
863.641	-124.07
863.822	43.86
864.004	-66.73
864.185	-56.49
864.367	-50.35
864.549	-31.91
864.73	-1.19
864.912	-97.45
865.093	-81.07
865.275	-36.01
865.456	-1.19
865.638	-19.63
865.819	35.67
866.001	-132.26
866.182	-36.01
866.363	-66.73
866.545	-27.82
866.726	-9.39
866.908	54.1
867.089	4.95
867.27	25.43
867.452	52.05
867.633	-15.53
867.814	2.9
867.996	47.96
868.177	-11.43
868.358	33.62
868.54	-23.72
868.721	-38.06
868.902	37.72
869.083	-60.59
869.265	11.09
869.446	-56.49
869.627	23.38
869.808	0.85
869.989	-40.11
870.171	-13.48
870.352	-15.53
870.533	-3.24
870.714	-83.11
870.895	45.91
871.076	62.29
871.257	-27.82
871.438	-33.96
871.619	-66.73
871.801	-70.83
871.982	-126.12
872.163	60.24
872.344	-64.68
872.525	-27.82
872.706	-56.49
872.887	-40.11
873.068	19.29
873.249	-52.39
873.43	-76.97
873.61	4.95
873.791	-11.43
873.972	-31.91
874.153	4.95
874.334	119.64
874.515	-101.55
874.696	-36.01
874.877	-36.01
875.058	-31.91
875.238	-21.67
875.419	-5.29
875.6	-23.72
875.781	-50.35
875.962	-144.55
876.142	99.16
876.323	-60.59
876.504	-36.01
876.685	-58.54
876.865	-1.19
877.046	-1.19
877.227	52.05
877.407	4.95
877.588	-62.63
877.769	-117.93
877.949	-91.31
878.13	-46.25
878.311	72.53
878.491	27.48
878.672	58.2
878.853	60.24
879.033	50
879.214	-48.3
879.394	-36.01
879.575	0.85
879.755	-27.82
879.936	-40.11
880.116	58.2
880.297	-15.53
880.477	-36.01
880.658	-48.3
880.838	31.57
881.019	-7.34
881.199	43.86
881.38	-29.87
881.56	58.2
881.74	43.86
881.921	-5.29
882.101	27.48
882.281	62.29
882.462	-122.02
882.642	62.29
882.822	-74.92
883.003	7
883.183	-91.31
883.363	72.53
883.544	-19.63
883.724	19.29
883.904	-36.01
884.084	33.62
884.265	-81.07
884.445	2.9
884.625	2.9
884.805	-9.39
884.985	-81.07
885.166	-60.59
885.346	-50.35
885.526	-66.73
885.706	-5.29
885.886	-56.49
886.066	-9.39
886.246	-64.68
886.426	-13.48
886.606	-27.82
886.787	-27.82
886.967	-25.77
887.147	-40.11
887.327	47.96
887.507	-56.49
887.687	90.96
887.867	-21.67
888.047	68.44
888.227	-27.82
888.406	-9.39
888.586	-68.78
888.766	84.82
888.946	4.95
889.126	-56.49
889.306	-72.87
889.486	-130.22
889.666	-29.87
889.846	-58.54
890.025	35.67
890.205	-29.87
890.385	25.43
890.565	13.14
890.745	-31.91
890.924	4.95
891.104	-70.83
891.284	4.95
891.464	-15.53
891.643	-56.49
891.823	-31.91
892.003	-89.26
892.183	-95.4
892.362	23.38
892.542	103.25
892.722	-169.13
892.901	-19.63
893.081	25.43
893.26	-33.96
893.44	-40.11
893.62	-99.5
893.799	-21.67
893.979	-33.96
894.158	41.81
894.338	-62.63
894.517	39.76
894.697	-76.97
894.877	9.05
895.056	-25.77
895.236	29.52
895.415	-66.73
895.594	15.19
895.774	4.95
895.953	47.96
896.133	-19.63
896.312	-72.87
896.492	-128.17
896.671	93.01
896.85	9.05
897.03	39.76
897.209	-36.01
897.388	-89.26
897.568	-33.96
897.747	-13.48
897.926	39.76
898.106	-33.96
898.285	-19.63
898.464	33.62
898.643	-31.91
898.823	15.19
899.002	-56.49
899.181	-7.34
899.36	90.96
899.54	144.21
899.719	-103.59
899.898	23.38
900.077	-85.16
900.256	-144.55
900.435	37.72
900.614	66.39
900.794	27.48
900.973	-23.72
901.152	-74.92
901.331	25.43
901.51	13.14
901.689	33.62
901.868	-70.83
902.047	-81.07
902.226	-9.39
902.405	-5.29
902.584	-60.59
902.763	-109.74
902.942	-48.3
903.121	37.72
903.3	-76.97
903.479	37.72
903.658	-9.39
903.837	-44.2
904.015	-54.44
904.194	-23.72
904.373	-76.97
904.552	-74.92
904.731	9.05
904.91	31.57
905.089	-74.92
905.267	15.19
905.446	-70.83
905.625	-17.58
905.804	-76.97
905.982	-19.63
906.161	-42.15
906.34	-5.29
906.519	54.1
906.697	-74.92
906.876	-95.4
907.055	27.48
907.233	29.52
907.412	-3.24
907.591	29.52
907.769	-48.3
907.948	15.19
908.127	-150.7
908.305	9.05
908.484	-25.77
908.662	-17.58
908.841	-19.63
909.019	-1.19
909.198	-101.55
909.377	-89.26
909.555	74.58
909.734	52.05
909.912	-25.77
910.09	-85.16
910.269	-50.35
910.447	-130.22
910.626	52.05
910.804	-9.39
910.983	-46.25
911.161	-48.3
911.339	2.9
911.518	-13.48
911.696	80.72
911.875	93.01
912.053	-21.67
912.231	9.05
912.41	-91.31
912.588	115.54
912.766	58.2
912.944	27.48
913.123	-68.78
913.301	39.76
913.479	1923.9
913.657	5634.82
913.836	5442.31
914.014	4109.08
914.192	2536.24
914.37	1139.52
914.548	340.82
914.727	58.2
914.905	-76.97
915.083	60.24
915.261	-101.55
915.439	29.52
915.617	-17.58
915.795	-46.25
915.973	-31.91
916.151	29.52
916.329	56.15
916.508	-76.97
916.686	-150.7
916.864	-64.68
917.042	15.19
917.22	-46.25
917.398	39.76
917.575	37.72
917.753	107.35
917.931	17.24
918.109	-66.73
918.287	-46.25
918.465	-7.34
918.643	-76.97
918.821	-3.24
918.999	-5.29
919.177	9.05
919.354	-11.43
919.532	-46.25
919.71	23.38
919.888	-5.29
920.066	-54.44
920.243	-107.69
920.421	-97.45
920.599	37.72
920.777	13.14
920.954	-21.67
921.132	-5.29
921.31	-36.01
921.488	0.85
921.665	78.68
921.843	62.29
922.021	84.82
922.198	15.19
922.376	-11.43
922.553	-38.06
922.731	54.1
922.909	-68.78
923.086	-7.34
923.264	-46.25
923.441	9.05
923.619	-122.02
923.796	37.72
923.974	-42.15
924.152	109.4
924.329	-36.01
924.507	9.05
924.684	-83.11
924.861	9.05
925.039	-48.3
925.216	2.9
925.394	13.14
925.571	-5.29
925.749	-50.35
925.926	88.92
926.103	-33.96
926.281	-25.77
926.458	41.81
926.635	45.91
926.813	-29.87
926.99	-128.17
927.167	-68.78
927.345	21.33
927.522	101.2
927.699	13.14
927.876	19.29
928.054	-107.69
928.231	-38.06
928.408	-15.53
928.585	-79.02
928.763	-40.11
928.94	-81.07
929.117	-5.29
929.294	-23.72
929.471	-58.54
929.648	-64.68
929.825	-36.01
930.003	-134.31
930.18	-19.63
930.357	-126.12
930.534	33.62
930.711	19.29
930.888	-38.06
931.065	-27.82
931.242	68.44
931.419	62.29
931.596	29.52
931.773	-46.25
931.95	-29.87
932.127	-111.78
932.304	-97.45
932.481	-9.39
932.658	93.01
932.835	-1.19
933.011	9.05
933.188	-44.2
933.365	-62.63
933.542	-31.91
933.719	-79.02
933.896	-17.58
934.073	31.57
934.249	9.05
934.426	50
934.603	78.68
934.78	-101.55
934.957	-25.77
935.133	-117.93
935.31	-33.96
935.487	-40.11
935.664	-124.07
935.84	-66.73
936.017	25.43
936.194	-79.02
936.37	13.14
936.547	-31.91
936.724	-128.17
936.9	152.4
937.077	-5.29
937.253	-48.3
937.43	23.38
937.607	0.85
937.783	9.05
937.96	25.43
938.136	-31.91
938.313	41.81
938.489	-36.01
938.666	-13.48
938.842	-76.97
939.019	60.24
939.195	-81.07
939.372	-13.48
939.548	-40.11
939.725	13.14
939.901	-3.24
940.077	-36.01
940.254	-23.72
940.43	80.72
940.607	-1.19
940.783	-42.15
940.959	-76.97
941.136	43.86
941.312	58.2
941.488	35.67
941.665	-74.92
941.841	117.59
942.017	-87.21
942.193	17.24
942.37	-17.58
942.546	-76.97
942.722	86.87
942.898	-19.63
943.074	-52.39
943.251	37.72
943.427	29.52
943.603	-93.35
943.779	-40.11
943.955	-87.21
944.131	27.48
944.308	-15.53
944.484	52.05
944.66	-50.35
944.836	-64.68
945.012	31.57
945.188	-13.48
945.364	-19.63
945.54	-27.82
945.716	-33.96
945.892	-66.73
946.068	54.1
946.244	41.81
946.42	19.29
946.596	80.72
946.772	19.29
946.948	-72.87
947.124	-7.34
947.3	80.72
947.475	82.77
947.651	-7.34
947.827	31.57
948.003	45.91
948.179	-29.87
948.355	-44.2
948.531	-29.87
948.706	-72.87
948.882	41.81
949.058	-50.35
949.234	-72.87
949.409	-62.63
949.585	23.38
949.761	-52.39
949.937	-31.91
950.112	60.24
950.288	-66.73
950.464	11.09
950.639	-17.58
950.815	-81.07
950.991	11.09
951.166	25.43
951.342	-33.96
951.518	-11.43
951.693	11.09
951.869	47.96
952.044	47.96
952.22	-103.59
952.395	-54.44
952.571	-122.02
952.747	-81.07
952.922	-79.02
953.098	41.81
953.273	-85.16
953.448	66.39
953.624	15.19
953.799	27.48
953.975	-97.45
954.15	-74.92
954.326	17.24
954.501	-58.54
954.676	54.1
954.852	-62.63
955.027	-50.35
955.203	107.35
955.378	11.09
955.553	-70.83
955.729	-99.5
955.904	-5.29
956.079	-33.96
956.254	-25.77
956.43	-5.29
956.605	35.67
956.78	13.14
956.955	15.19
957.131	-87.21
957.306	-87.21
957.481	56.15
957.656	-64.68
957.831	31.57
958.007	11.09
958.182	-101.55
958.357	-27.82
958.532	11.09
958.707	-25.77
958.882	-9.39
959.057	-38.06
959.232	13.14
959.407	4.95
959.582	-50.35
959.757	-36.01
959.932	-9.39
960.107	27.48
960.282	-91.31
960.457	21.33
960.632	17.24
960.807	-99.5
960.982	-11.43
961.157	-44.2
961.332	2.9
961.507	-31.91
961.682	-62.63
961.857	84.82
962.032	25.43
962.206	15.19
962.381	-64.68
962.556	-33.96
962.731	-3.24
962.906	-60.59
963.081	-31.91
963.255	9.05
963.43	-64.68
963.605	-25.77
963.78	11.09
963.954	33.62
964.129	43.86
964.304	-3.24
964.479	-68.78
964.653	7
964.828	37.72
965.003	25.43
965.177	-89.26
965.352	-87.21
965.526	-54.44
965.701	-87.21
965.876	13.14
966.05	-54.44
966.225	-23.72
966.399	31.57
966.574	-21.67
966.748	0.85
966.923	11.09
967.098	-107.69
967.272	-72.87
967.446	-19.63
967.621	-54.44
967.795	80.72
967.97	9.05
968.144	64.34
968.319	-9.39
968.493	-5.29
968.668	-9.39
968.842	133.97
969.016	-58.54
969.191	27.48
969.365	-107.69
969.539	-29.87
969.714	-97.45
969.888	43.86
970.062	0.85
970.237	-48.3
970.411	21.33
970.585	-138.41
970.759	-64.68
970.934	27.48
971.108	-29.87
971.282	15.19
971.456	-79.02
971.63	52.05
971.805	-40.11
971.979	11.09
972.153	27.48
972.327	-44.2
972.501	11.09
972.675	7
972.849	-119.98
973.024	-9.39
973.198	-40.11
973.372	-11.43
973.546	37.72
973.72	-56.49
973.894	-1.19
974.068	-152.74
974.242	-99.5
974.416	2.9
974.59	-181.42
974.764	-15.53
974.938	-46.25
975.112	-27.82
975.286	-140.46
975.46	-54.44
975.633	-87.21
975.807	-29.87
975.981	60.24
976.155	-29.87
976.329	-21.67
976.503	11.09
976.677	-50.35
976.85	-50.35
977.024	0.85
977.198	-76.97
977.372	-58.54
977.546	-29.87
977.719	-38.06
977.893	-66.73
978.067	-62.63
978.241	-68.78
978.414	-62.63
978.588	-11.43
978.762	35.67
978.935	29.52
979.109	15.19
979.283	-1.19
979.456	-36.01
979.63	-54.44
979.804	-17.58
979.977	-58.54
980.151	-99.5
980.324	64.34
980.498	-89.26
980.671	-38.06
980.845	-66.73
981.018	27.48
981.192	7
981.365	-31.91
981.539	25.43
981.712	-107.69
981.886	-44.2
982.059	-70.83
982.233	-11.43
982.406	17.24
982.58	-17.58
982.753	-31.91
982.926	-27.82
983.1	-5.29
983.273	-70.83
983.446	-5.29
983.62	19.29
983.793	-17.58
983.966	113.49
984.14	19.29
984.313	-93.35
984.486	-19.63
984.66	15.19
984.833	21.33
985.006	78.68
985.179	105.3
985.352	70.48
985.526	9.05
985.699	-50.35
985.872	-15.53
986.045	58.2
986.218	-31.91
986.391	127.83
986.565	56.15
986.738	-76.97
986.911	-17.58
987.084	-11.43
987.257	-3.24
987.43	-7.34
987.603	13.14
987.776	-66.73
987.949	-19.63
988.122	-60.59
988.295	37.72
988.468	-29.87
988.641	-38.06
988.814	15.19
988.987	-1.19
989.16	-99.5
989.333	-138.41
989.506	78.68
989.679	-44.2
989.852	-107.69
990.025	-33.96
990.197	0.85
990.37	11.09
990.543	-9.39
990.716	-103.59
990.889	-83.11
991.062	-19.63
991.234	2.9
991.407	-19.63
991.58	-17.58
991.753	-58.54
991.925	-33.96
992.098	45.91
992.271	-33.96
992.444	-7.34
992.616	-54.44
992.789	-33.96
992.962	-44.2
993.134	15.19
993.307	-62.63
993.479	62.29
993.652	17.24
993.825	-117.93
993.997	13.14
994.17	-79.02
994.342	-93.35
994.515	-36.01
994.688	7
994.86	-17.58
995.033	-44.2
995.205	21.33
995.378	-62.63
995.55	-79.02
995.723	-11.43
995.895	15.19
996.067	-3.24
996.24	-29.87
996.412	-38.06
996.585	11.09
996.757	-72.87
996.929	52.05
997.102	-46.25
997.274	35.67
997.447	-56.49
997.619	-95.4
997.791	74.58
997.964	-17.58
998.136	-64.68
998.308	-64.68
998.48	-19.63
998.653	15.19
998.825	-56.49
998.997	-72.87
999.169	19.29
999.342	-68.78
999.514	-29.87
999.686	-5.29
999.858	-74.92
1000.03	-19.63
1000.202	-3.24
1000.374	-46.25
1000.547	-68.78
1000.719	-48.3
1000.891	-21.67
1001.063	25.43
1001.235	-72.87
1001.407	-68.78
1001.579	-60.59
1001.751	-17.58
1001.923	35.67
1002.095	7
1002.267	-81.07
1002.439	-64.68
1002.611	-31.91
1002.783	21.33
1002.955	-38.06
1003.127	-56.49
1003.299	-36.01
1003.471	-66.73
1003.643	-44.2
1003.815	62.29
1003.986	-36.01
1004.158	41.81
1004.33	-111.78
1004.502	-115.88
1004.674	-50.35
1004.846	76.63
1005.017	-9.39
1005.189	-79.02
1005.361	23.38
1005.533	-5.29
1005.704	-17.58
1005.876	78.68
1006.048	7
1006.22	-5.29
1006.391	-54.44
1006.563	-91.31
1006.735	-81.07
1006.906	64.34
1007.078	-54.44
1007.25	17.24
1007.421	-1.19
1007.593	-72.87
1007.764	-81.07
1007.936	-3.24
1008.108	-76.97
1008.279	-83.11
1008.451	-13.48
1008.622	60.24
1008.794	-56.49
1008.965	9.05
1009.137	29.52
1009.308	-76.97
1009.48	-142.5
1009.651	31.57
1009.823	-83.11
1009.994	-60.59
1010.165	-33.96
1010.337	-44.2
1010.508	-40.11
1010.68	9.05
1010.851	-5.29
1011.022	-66.73
1011.194	-42.15
1011.365	-29.87
1011.536	2.9
1011.708	84.82
1011.879	-13.48
1012.05	25.43
1012.222	64.34
1012.393	25.43
1012.564	-23.72
1012.735	-19.63
1012.906	15.19
1013.078	-31.91
1013.249	-109.74
1013.42	-79.02
1013.591	-70.83
1013.762	11.09
1013.934	2.9
1014.105	-62.63
1014.276	-62.63
1014.447	93.01
1014.618	-48.3
1014.789	2.9
1014.96	101.2
1015.131	-68.78
1015.302	-17.58
1015.473	-25.77
1015.644	-31.91
1015.815	-13.48
1015.986	-70.83
1016.157	27.48
1016.328	-79.02
1016.499	70.48
1016.67	43.86
1016.841	-132.26
1017.012	-117.93
1017.183	-81.07
1017.354	-62.63
1017.525	-122.02
1017.696	-1.19
1017.867	-38.06
1018.037	-177.32
1018.208	52.05
1018.379	66.39
1018.55	-64.68
1018.721	2.9
1018.891	-50.35
1019.062	-19.63
1019.233	0.85
1019.404	-132.26
1019.574	-3.24
1019.745	-19.63
1019.916	-42.15
1020.087	62.29
1020.257	-83.11
1020.428	-52.39
1020.599	-91.31
1020.769	2.9
1020.94	23.38
1021.11	56.15
1021.281	-146.6
1021.452	-13.48
1021.622	-68.78
1021.793	-25.77
1021.963	43.86
1022.134	-31.91
1022.305	-33.96
1022.475	-58.54
1022.646	-83.11
1022.816	43.86
1022.987	-183.46
1023.157	109.4
1023.327	9.05
1023.498	62.29
1023.668	45.91
1023.839	-31.91
1024.009	-36.01
1024.18	60.24
1024.35	-38.06
1024.52	-76.97
1024.691	-64.68
1024.861	-25.77
1025.031	-117.93
1025.202	-25.77
1025.372	47.96
1025.542	-13.48
1025.713	4.95
1025.883	15.19
1026.053	17.24
1026.223	-11.43
1026.394	-72.87
1026.564	-40.11
1026.734	-9.39
1026.904	-42.15
1027.074	-46.25
1027.245	-54.44
1027.415	7
1027.585	-58.54
1027.755	-58.54
1027.925	13.14
1028.095	-13.48
1028.265	70.48
1028.435	-99.5
1028.606	-42.15
1028.776	-89.26
1028.946	-33.96
1029.116	-50.35
1029.286	-124.07
1029.456	4.95
1029.626	-68.78
1029.796	-68.78
1029.966	107.35
1030.136	-29.87
1030.306	76.63
1030.475	-33.96
1030.645	-85.16
1030.815	-1.19
1030.985	54.1
1031.155	58.2
1031.325	-58.54
1031.495	97.11
1031.665	7
1031.835	-1.19
1032.004	-36.01
1032.174	47.96
1032.344	-126.12
1032.514	-48.3
1032.684	-58.54
1032.853	74.58
1033.023	15.19
1033.193	19.29
1033.362	33.62
1033.532	2.9
1033.702	27.48
1033.872	23.38
1034.041	-122.02
1034.211	-83.11
1034.381	-85.16
1034.55	-33.96
1034.72	-19.63
1034.889	-58.54
1035.059	2.9
1035.229	-85.16
1035.398	47.96
1035.568	-33.96
1035.737	-70.83
1035.907	-1.19
1036.076	-21.67
1036.246	31.57
1036.415	76.63
1036.585	-52.39
1036.754	-128.17
1036.924	-38.06
1037.093	62.29
1037.263	-111.78
1037.432	-140.46
1037.601	-76.97
1037.771	-64.68
1037.94	31.57
1038.11	-29.87
1038.279	50
1038.448	-38.06
1038.618	54.1
1038.787	-33.96
1038.956	-79.02
1039.126	-36.01
1039.295	-19.63
1039.464	-93.35
1039.633	-150.7
1039.803	4.95
1039.972	-17.58
1040.141	-54.44
1040.31	-64.68
1040.479	25.43
1040.649	23.38
1040.818	-40.11
1040.987	-23.72
1041.156	-97.45
1041.325	-38.06
1041.494	7
1041.663	39.76
1041.833	-111.78
1042.002	-11.43
1042.171	47.96
1042.34	-33.96
1042.509	29.52
1042.678	-13.48
