Data from LSP88_F10_Subt2_18-19-15-844.txt Node
Date: Tue Aug 22 18:19:15 EDT 2023
User: Emmanuel
Spectrometer: USB4A00615
Scans to average: 1
Trigger mode: 1
Integration Time (sec): 5.000000E-3
Electric dark correction enabled: true
Boxcar width: 0
XAxis mode: Wavelengths
Number of Pixels in Spectrum: 3648
>>>>>Begin Spectral Data<<<<<
346.606	13.48
346.818	13.48
347.029	13.48
347.241	-19.29
347.452	-60.24
347.664	154.79
347.876	-115.54
348.087	68.78
348.299	-93.01
348.51	-9.05
348.722	17.58
348.933	17.58
349.145	-60.24
349.356	-56.15
349.568	72.87
349.779	11.43
349.991	-9.05
350.202	58.54
350.414	-133.97
350.625	-17.24
350.836	13.48
351.048	1.19
351.259	7.34
351.471	-31.57
351.682	27.82
351.893	-25.43
352.105	-136.02
352.316	-80.72
352.527	85.16
352.739	-25.43
352.95	-7
353.161	23.72
353.372	-62.29
353.584	56.49
353.795	-19.29
354.006	25.77
354.217	3.24
354.429	72.87
354.64	25.77
354.851	-43.86
355.062	-13.14
355.274	42.15
355.485	21.67
355.696	-4.95
355.907	44.2
356.118	-52.05
356.329	5.29
356.54	83.11
356.752	13.48
356.963	83.11
357.174	5.29
357.385	33.96
357.596	27.82
357.807	15.53
358.018	-70.48
358.229	52.39
358.44	-35.67
358.651	-119.64
358.862	-84.82
359.073	38.06
359.284	50.35
359.495	33.96
359.706	-7
359.917	-56.15
360.128	17.58
360.339	91.31
360.55	1.19
360.761	-41.81
360.972	-7
361.182	85.16
361.393	-39.76
361.604	-127.83
361.815	-21.33
362.026	19.63
362.237	-78.68
362.447	23.72
362.658	-68.44
362.869	89.26
363.08	27.82
363.291	50.35
363.501	50.35
363.712	1.19
363.923	23.72
364.134	-0.85
364.344	19.63
364.555	103.59
364.766	38.06
364.976	25.77
365.187	66.73
365.398	-70.48
365.608	-41.81
365.819	15.53
366.03	-2.9
366.24	15.53
366.451	-39.76
366.662	181.42
366.872	-0.85
367.083	27.82
367.293	-58.2
367.504	31.91
367.714	-64.34
367.925	-76.63
368.135	-119.64
368.346	25.77
368.557	-56.15
368.767	56.49
368.977	-17.24
369.188	-50
369.398	-25.43
369.609	1.19
369.819	27.82
370.03	42.15
370.24	-0.85
370.451	-90.96
370.661	-31.57
370.871	29.87
371.082	68.78
371.292	25.77
371.502	5.29
371.713	25.77
371.923	40.11
372.133	-43.86
372.344	-7
372.554	81.07
372.764	44.2
372.975	-19.29
373.185	21.67
373.395	23.72
373.605	-97.11
373.816	38.06
374.026	-39.76
374.236	-93.01
374.446	-39.76
374.656	-13.14
374.867	-4.95
375.077	-17.24
375.287	-86.87
375.497	-25.43
375.707	-33.62
375.917	21.67
376.127	56.49
376.338	-43.86
376.548	-64.34
376.758	52.39
376.968	-4.95
377.178	-95.06
377.388	-33.62
377.598	-7
377.808	13.48
378.018	44.2
378.228	-9.05
378.438	-15.19
378.648	76.97
378.858	1.19
379.068	-25.43
379.278	54.44
379.488	-13.14
379.698	36.01
379.908	-64.34
380.118	36.01
380.327	25.77
380.537	40.11
380.747	-2.9
380.957	-68.44
381.167	-19.29
381.377	-88.92
381.587	25.77
381.796	-78.68
382.006	-56.15
382.216	13.48
382.426	62.63
382.636	-31.57
382.845	58.54
383.055	109.74
383.265	60.59
383.475	56.49
383.684	-39.76
383.894	-33.62
384.104	25.77
384.313	-27.48
384.523	15.53
384.733	-2.9
384.942	-97.11
385.152	5.29
385.362	-39.76
385.571	25.77
385.781	25.77
385.991	-45.91
386.2	-97.11
386.41	17.58
386.619	-58.2
386.829	79.02
387.038	-54.1
387.248	60.59
387.457	3.24
387.667	-21.33
387.876	54.44
388.086	-27.48
388.295	-62.29
388.505	-47.96
388.714	21.67
388.924	-47.96
389.133	52.39
389.343	83.11
389.552	-4.95
389.762	3.24
389.971	46.25
390.18	-23.38
390.39	-80.72
390.599	-121.68
390.808	-27.48
391.018	-7
391.227	74.92
391.436	-62.29
391.646	48.3
391.855	17.58
392.064	-19.29
392.274	50.35
392.483	64.68
392.692	-7
392.901	42.15
393.111	-95.06
393.32	-13.14
393.529	62.63
393.738	27.82
393.947	23.72
394.157	21.67
394.366	13.48
394.575	-29.52
394.784	-62.29
394.993	81.07
395.202	-15.19
395.411	79.02
395.62	124.07
395.83	-95.06
396.039	-27.48
396.248	-62.29
396.457	1.19
396.666	40.11
396.875	-39.76
397.084	-60.24
397.293	68.78
397.502	-54.1
397.711	-54.1
397.92	70.83
398.129	64.68
398.338	62.63
398.547	222.38
398.756	-31.57
398.965	-43.86
399.174	-25.43
399.382	1.19
399.591	25.77
399.8	38.06
400.009	1.19
400.218	-25.43
400.427	-0.85
400.636	38.06
400.844	-21.33
401.053	-54.1
401.262	-37.72
401.471	-43.86
401.68	-86.87
401.888	-17.24
402.097	54.44
402.306	60.59
402.515	-50
402.723	25.77
402.932	-33.62
403.141	-0.85
403.35	46.25
403.558	-78.68
403.767	-15.19
403.976	-41.81
404.184	-23.38
404.393	1.19
404.602	5.29
404.81	5.29
405.019	87.21
405.227	-7
405.436	-60.24
405.645	79.02
405.853	-29.52
406.062	109.74
406.27	-52.05
406.479	19.63
406.687	52.39
406.896	122.02
407.104	-35.67
407.313	-23.38
407.521	-78.68
407.73	-2.9
407.938	13.48
408.147	-23.38
408.355	64.68
408.563	48.3
408.772	-21.33
408.98	1.19
409.189	-15.19
409.397	64.68
409.605	-52.05
409.814	42.15
410.022	-70.48
410.23	23.72
410.439	-11.09
410.647	-23.38
410.855	-23.38
411.064	31.91
411.272	-4.95
411.48	31.91
411.688	58.54
411.897	-23.38
412.105	-54.1
412.313	46.25
412.521	87.21
412.73	-43.86
412.938	-25.43
413.146	-9.05
413.354	13.48
413.562	-17.24
413.77	-58.2
413.979	-109.4
414.187	-133.97
414.395	23.72
414.603	52.39
414.811	-60.24
415.019	11.43
415.227	52.39
415.435	44.2
415.643	7.34
415.851	-27.48
416.059	-27.48
416.267	5.29
416.475	21.67
416.683	81.07
416.891	-78.68
417.099	21.67
417.307	-76.63
417.515	-11.09
417.723	87.21
417.931	60.59
418.139	40.11
418.347	60.59
418.555	-86.87
418.763	-17.24
418.971	-19.29
419.179	-11.09
419.386	52.39
419.594	25.77
419.802	-84.82
420.01	70.83
420.218	-2.9
420.426	5.29
420.633	68.78
420.841	13.48
421.049	-7
421.257	113.83
421.464	-45.91
421.672	68.78
421.88	60.59
422.088	97.45
422.295	58.54
422.503	29.87
422.711	76.97
422.918	36.01
423.126	21.67
423.334	-31.57
423.541	-19.29
423.749	15.53
423.956	1.19
424.164	9.39
424.372	-13.14
424.579	23.72
424.787	-2.9
424.994	11.43
425.202	9.39
425.409	-23.38
425.617	93.35
425.824	11.43
426.032	-66.39
426.239	25.77
426.447	74.92
426.654	15.53
426.862	21.67
427.069	-11.09
427.277	109.74
427.484	1.19
427.692	-7
427.899	79.02
428.106	-27.48
428.314	-37.72
428.521	7.34
428.728	107.69
428.936	-11.09
429.143	-27.48
429.351	76.97
429.558	25.77
429.765	3.24
429.972	-45.91
430.18	58.54
430.387	-37.72
430.594	48.3
430.801	-111.44
431.009	-47.96
431.216	109.74
431.423	44.2
431.63	-25.43
431.838	13.48
432.045	-54.1
432.252	97.45
432.459	11.43
432.666	40.11
432.873	25.77
433.081	17.58
433.288	15.53
433.495	72.87
433.702	-29.52
433.909	9.39
434.116	21.67
434.323	52.39
434.53	-4.95
434.737	-138.07
434.944	38.06
435.151	50.35
435.358	-76.63
435.565	-7
435.772	33.96
435.979	44.2
436.186	-4.95
436.393	17.58
436.6	54.44
436.807	70.83
437.014	25.77
437.221	-146.26
437.428	-82.77
437.635	29.87
437.841	-123.73
438.048	-27.48
438.255	11.43
438.462	-17.24
438.669	46.25
438.876	23.72
439.082	-54.1
439.289	17.58
439.496	50.35
439.703	27.82
439.91	21.67
440.116	5.29
440.323	31.91
440.53	-23.38
440.737	31.91
440.943	68.78
441.15	27.82
441.357	-17.24
441.563	15.53
441.77	5.29
441.977	-72.53
442.183	-31.57
442.39	-45.91
442.597	83.11
442.803	40.11
443.01	15.53
443.216	38.06
443.423	31.91
443.63	-105.3
443.836	-21.33
444.043	-39.76
444.249	-50
444.456	-21.33
444.662	-15.19
444.869	60.59
445.075	-21.33
445.282	-47.96
445.488	-13.14
445.695	-19.29
445.901	115.88
446.107	-64.34
446.314	-15.19
446.52	40.11
446.727	17.58
446.933	72.87
447.139	-15.19
447.346	-13.14
447.552	-37.72
447.759	29.87
447.965	83.11
448.171	-88.92
448.378	-43.86
448.584	-43.86
448.79	-103.25
448.996	97.45
449.203	-4.95
449.409	5.29
449.615	3.24
449.821	13.48
450.028	9.39
450.234	36.01
450.44	64.68
450.646	-27.48
450.852	3.24
451.059	44.2
451.265	85.16
451.471	-37.72
451.677	27.82
451.883	-13.14
452.089	15.53
452.295	46.25
452.502	7.34
452.708	-54.1
452.914	40.11
453.12	38.06
453.326	38.06
453.532	46.25
453.738	-127.83
453.944	23.72
454.15	15.53
454.356	9.39
454.562	-41.81
454.768	-47.96
454.974	148.65
455.18	-37.72
455.386	56.49
455.592	3.24
455.798	-17.24
456.003	33.96
456.209	60.59
456.415	-11.09
456.621	1.19
456.827	-25.43
457.033	48.3
457.239	-27.48
457.444	62.63
457.65	-2.9
457.856	5.29
458.062	-25.43
458.268	-2.9
458.473	19.63
458.679	7.34
458.885	9.39
459.091	-27.48
459.296	5.29
459.502	-107.35
459.708	-43.86
459.914	-78.68
460.119	-15.19
460.325	7.34
460.531	93.35
460.736	72.87
460.942	-58.2
461.147	101.55
461.353	23.72
461.559	97.45
461.764	-0.85
461.97	50.35
462.175	-64.34
462.381	160.94
462.587	-4.95
462.792	-86.87
462.998	-13.14
463.203	-23.38
463.409	38.06
463.614	-33.62
463.82	27.82
464.025	93.35
464.231	50.35
464.436	17.58
464.641	11.43
464.847	-15.19
465.052	-62.29
465.258	31.91
465.463	36.01
465.669	1.19
465.874	62.63
466.079	119.98
466.285	-109.4
466.49	31.91
466.695	76.97
466.901	1.19
467.106	-29.52
467.311	-17.24
467.516	-33.62
467.722	7.34
467.927	-11.09
468.132	-74.58
468.338	48.3
468.543	42.15
468.748	21.67
468.953	23.72
469.158	-4.95
469.364	76.97
469.569	68.78
469.774	7.34
469.979	-7
470.184	9.39
470.389	31.91
470.594	-17.24
470.8	46.25
471.005	-45.91
471.21	-52.05
471.415	38.06
471.62	-4.95
471.825	21.67
472.03	54.44
472.235	-2.9
472.44	66.73
472.645	64.68
472.85	79.02
473.055	7.34
473.26	79.02
473.465	-19.29
473.67	85.16
473.875	36.01
474.08	7.34
474.285	36.01
474.49	40.11
474.695	42.15
474.899	-54.1
475.104	9.39
475.309	54.44
475.514	-11.09
475.719	-15.19
475.924	42.15
476.128	128.17
476.333	25.77
476.538	19.63
476.743	-27.48
476.948	-17.24
477.152	42.15
477.357	-21.33
477.562	-15.19
477.767	60.59
477.971	93.35
478.176	-37.72
478.381	-29.52
478.585	-39.76
478.79	7.34
478.995	52.39
479.199	-35.67
479.404	25.77
479.609	9.39
479.813	134.31
480.018	23.72
480.223	68.78
480.427	138.41
480.632	240.81
480.836	46.25
481.041	150.7
481.245	-23.38
481.45	87.21
481.654	1.19
481.859	-0.85
482.063	160.94
482.268	62.63
482.472	58.54
482.677	105.64
482.881	-29.52
483.086	119.98
483.29	76.97
483.495	5.29
483.699	33.96
483.903	64.68
484.108	128.17
484.312	95.4
484.517	130.22
484.721	36.01
484.925	-21.33
485.13	-7
485.334	38.06
485.538	91.31
485.743	-66.39
485.947	64.68
486.151	105.64
486.355	72.87
486.56	109.74
486.764	19.63
486.968	136.36
487.172	46.25
487.377	38.06
487.581	38.06
487.785	13.48
487.989	242.85
488.193	48.3
488.397	146.6
488.602	181.42
488.806	308.39
489.01	74.92
489.214	64.68
489.418	64.68
489.622	50.35
489.826	42.15
490.03	-21.33
490.234	85.16
490.438	91.31
490.642	-15.19
490.846	-25.43
491.05	136.36
491.254	62.63
491.458	56.49
491.662	128.17
491.866	-41.81
492.07	25.77
492.274	95.4
492.478	33.96
492.682	54.44
492.886	-27.48
493.09	130.22
493.294	-19.29
493.498	124.07
493.701	103.59
493.905	15.53
494.109	9.39
494.313	115.88
494.517	99.5
494.721	52.39
494.924	154.79
495.128	103.59
495.332	189.61
495.536	62.63
495.739	68.78
495.943	134.31
496.147	130.22
496.351	3.24
496.554	17.58
496.758	9.39
496.962	76.97
497.165	33.96
497.369	101.55
497.573	62.63
497.776	187.56
497.98	27.82
498.184	199.85
498.387	208.04
498.591	36.01
498.794	17.58
498.998	97.45
499.202	185.51
499.405	46.25
499.609	29.87
499.812	9.39
500.016	-43.86
500.219	226.47
500.423	169.13
500.626	175.27
500.83	31.91
501.033	115.88
501.237	138.41
501.44	365.73
501.643	128.17
501.847	185.51
502.05	103.59
502.254	119.98
502.457	91.31
502.66	181.42
502.864	79.02
503.067	50.35
503.271	95.4
503.474	-35.67
503.677	124.07
503.88	132.26
504.084	93.35
504.287	79.02
504.49	156.84
504.694	216.23
504.897	101.55
505.1	728.22
505.303	308.39
505.507	281.77
505.71	185.51
505.913	251.05
506.116	85.16
506.319	169.13
506.522	169.13
506.726	269.48
506.929	136.36
507.132	216.23
507.335	140.46
507.538	70.83
507.741	152.74
507.944	144.55
508.147	58.54
508.35	62.63
508.553	54.44
508.756	64.68
508.959	-0.85
509.163	11.43
509.366	62.63
509.569	105.64
509.771	-39.76
509.974	38.06
510.177	162.98
510.38	197.8
510.583	93.35
510.786	158.89
510.989	109.74
511.192	197.8
511.395	44.2
511.598	117.93
511.801	124.07
512.004	136.36
512.206	44.2
512.409	70.83
512.612	130.22
512.815	173.22
513.018	29.87
513.22	7.34
513.423	25.77
513.626	54.44
513.829	72.87
514.032	271.53
514.234	91.31
514.437	259.24
514.64	76.97
514.842	64.68
515.045	-19.29
515.248	183.46
515.45	85.16
515.653	21.67
515.856	154.79
516.058	-21.33
516.261	48.3
516.464	-0.85
516.666	17.58
516.869	201.9
517.071	33.96
517.274	72.87
517.477	83.11
517.679	76.97
517.882	79.02
518.084	62.63
518.287	38.06
518.489	234.66
518.692	107.69
518.894	99.5
519.097	165.03
519.299	119.98
519.501	230.57
519.704	40.11
519.906	107.69
520.109	365.73
520.311	74.92
520.514	263.33
520.716	27.82
520.918	251.05
521.121	130.22
521.323	294.05
521.525	-7
521.728	230.57
521.93	83.11
522.132	752.8
522.335	359.59
522.537	367.78
522.739	103.59
522.941	261.29
523.144	152.74
523.346	136.36
523.548	165.03
523.75	158.89
523.952	64.68
524.155	165.03
524.357	68.78
524.559	152.74
524.761	7.34
524.963	230.57
525.165	238.76
525.368	302.25
525.57	259.24
525.772	187.56
525.974	140.46
526.176	79.02
526.378	85.16
526.58	171.18
526.782	54.44
526.984	81.07
527.186	105.64
527.388	25.77
527.59	160.94
527.792	210.09
527.994	85.16
528.196	128.17
528.398	122.02
528.6	240.81
528.802	-39.76
529.004	79.02
529.206	58.54
529.408	173.22
529.609	15.53
529.811	240.81
530.013	36.01
530.215	115.88
530.417	138.41
530.619	167.08
530.821	150.7
531.022	91.31
531.224	124.07
531.426	341.16
531.628	244.9
531.829	19.63
532.031	107.69
532.233	91.31
532.435	23.72
532.636	68.78
532.838	126.12
533.04	105.64
533.241	152.74
533.443	162.98
533.645	23.72
533.846	56.49
534.048	117.93
534.25	107.69
534.451	119.98
534.653	158.89
534.855	97.45
535.056	21.67
535.258	13.48
535.459	87.21
535.661	105.64
535.862	79.02
536.064	5.29
536.265	19.63
536.467	-15.19
536.668	60.59
536.87	-7
537.071	214.18
537.273	99.5
537.474	62.63
537.676	19.63
537.877	-35.67
538.078	33.96
538.28	111.78
538.481	17.58
538.683	97.45
538.884	138.41
539.085	79.02
539.287	74.92
539.488	122.02
539.689	7.34
539.891	205.99
540.092	44.2
540.293	134.31
540.495	79.02
540.696	62.63
540.897	136.36
541.098	56.49
541.3	-13.14
541.501	97.45
541.702	64.68
541.903	210.09
542.104	27.82
542.306	76.97
542.507	23.72
542.708	50.35
542.909	3.24
543.11	95.4
543.311	-60.24
543.512	40.11
543.713	72.87
543.915	60.59
544.116	15.53
544.317	95.4
544.518	103.59
544.719	11.43
544.92	74.92
545.121	70.83
545.322	140.46
545.523	109.74
545.724	-23.38
545.925	136.36
546.126	40.11
546.327	162.98
546.528	214.18
546.729	-68.44
546.929	124.07
547.13	68.78
547.331	-2.9
547.532	158.89
547.733	-95.06
547.934	210.09
548.135	-76.63
548.336	101.55
548.536	36.01
548.737	261.29
548.938	246.95
549.139	185.51
549.34	15.53
549.54	115.88
549.741	38.06
549.942	175.27
550.143	48.3
550.343	72.87
550.544	62.63
550.745	351.4
550.945	187.56
551.146	-15.19
551.347	9.39
551.547	169.13
551.748	21.67
551.949	83.11
552.149	175.27
552.35	11.43
552.551	99.5
552.751	-50
552.952	85.16
553.152	111.78
553.353	-7
553.553	60.59
553.754	91.31
553.954	15.53
554.155	-58.2
554.356	105.64
554.556	103.59
554.756	76.97
554.957	21.67
555.157	17.58
555.358	173.22
555.558	5.29
555.759	11.43
555.959	62.63
556.159	52.39
556.36	199.85
556.56	97.45
556.761	167.08
556.961	93.35
557.161	193.7
557.362	107.69
557.562	208.04
557.762	21.67
557.963	150.7
558.163	95.4
558.363	-39.76
558.563	64.68
558.764	23.72
558.964	72.87
559.164	76.97
559.364	25.77
559.565	62.63
559.765	46.25
559.965	169.13
560.165	101.55
560.365	56.49
560.565	25.77
560.766	171.18
560.966	66.73
561.166	11.43
561.366	189.61
561.566	87.21
561.766	89.26
561.966	1.19
562.166	103.59
562.366	113.83
562.566	46.25
562.766	29.87
562.966	132.26
563.166	154.79
563.366	48.3
563.566	76.97
563.766	107.69
563.966	183.46
564.166	154.79
564.366	109.74
564.566	87.21
564.766	148.65
564.966	-13.14
565.166	113.83
565.366	107.69
565.565	122.02
565.765	-19.29
565.965	15.53
566.165	119.98
566.365	152.74
566.565	111.78
566.764	101.55
566.964	-9.05
567.164	13.48
567.364	-4.95
567.564	68.78
567.763	38.06
567.963	19.63
568.163	7.34
568.362	122.02
568.562	134.31
568.762	58.54
568.961	13.48
569.161	103.59
569.361	27.82
569.56	62.63
569.76	-76.63
569.96	46.25
570.159	79.02
570.359	132.26
570.558	87.21
570.758	72.87
570.958	15.53
571.157	79.02
571.357	21.67
571.556	117.93
571.756	85.16
571.955	70.83
572.155	76.97
572.354	-2.9
572.554	1.19
572.753	101.55
572.953	203.94
573.152	25.77
573.351	101.55
573.551	46.25
573.75	-109.4
573.95	-2.9
574.149	36.01
574.348	193.7
574.548	44.2
574.747	-25.43
574.946	122.02
575.146	-21.33
575.345	66.73
575.544	52.39
575.744	107.69
575.943	23.72
576.142	52.39
576.342	9.39
576.541	146.6
576.74	85.16
576.939	105.64
577.138	44.2
577.338	109.74
577.537	40.11
577.736	42.15
577.935	62.63
578.134	56.49
578.333	-15.19
578.533	70.83
578.732	33.96
578.931	-9.05
579.13	152.74
579.329	27.82
579.528	23.72
579.727	79.02
579.926	-56.15
580.125	-70.48
580.324	126.12
580.523	58.54
580.722	-64.34
580.921	9.39
581.12	83.11
581.319	-90.96
581.518	33.96
581.717	-21.33
581.916	-82.77
582.115	158.89
582.314	74.92
582.513	70.83
582.712	85.16
582.911	79.02
583.109	27.82
583.308	-21.33
583.507	-15.19
583.706	115.88
583.905	23.72
584.104	76.97
584.302	36.01
584.501	31.91
584.7	-13.14
584.899	-29.52
585.098	-29.52
585.296	38.06
585.495	29.87
585.694	50.35
585.892	11.43
586.091	27.82
586.29	42.15
586.488	93.35
586.687	15.53
586.886	177.32
587.084	21.67
587.283	-29.52
587.482	83.11
587.68	-11.09
587.879	169.13
588.077	72.87
588.276	-43.86
588.475	-23.38
588.673	-9.05
588.872	95.4
589.07	44.2
589.269	40.11
589.467	-29.52
589.666	52.39
589.864	36.01
590.063	13.48
590.261	33.96
590.46	60.59
590.658	27.82
590.857	68.78
591.055	113.83
591.253	50.35
591.452	-4.95
591.65	17.58
591.848	46.25
592.047	-2.9
592.245	-4.95
592.444	21.67
592.642	44.2
592.84	146.6
593.038	-97.11
593.237	97.45
593.435	1.19
593.633	-39.76
593.832	-15.19
594.03	81.07
594.228	85.16
594.426	85.16
594.624	-11.09
594.823	103.59
595.021	-11.09
595.219	56.49
595.417	66.73
595.615	-27.48
595.813	58.54
596.012	83.11
596.21	113.83
596.408	36.01
596.606	148.65
596.804	33.96
597.002	-7
597.2	7.34
597.398	21.67
597.596	81.07
597.794	-39.76
597.992	62.63
598.19	27.82
598.388	109.74
598.586	97.45
598.784	-11.09
598.982	-41.81
599.18	103.59
599.378	29.87
599.576	-23.38
599.774	31.91
599.972	52.39
600.17	60.59
600.368	40.11
600.565	-11.09
600.763	68.78
600.961	-23.38
601.159	103.59
601.357	46.25
601.555	-0.85
601.752	15.53
601.95	-7
602.148	-115.54
602.346	50.35
602.544	132.26
602.741	54.44
602.939	54.44
603.137	33.96
603.334	-15.19
603.532	-13.14
603.73	25.77
603.927	44.2
604.125	-13.14
604.323	-11.09
604.52	89.26
604.718	70.83
604.916	66.73
605.113	27.82
605.311	-17.24
605.508	103.59
605.706	27.82
605.904	66.73
606.101	29.87
606.299	-7
606.496	-60.24
606.694	72.87
606.891	42.15
607.089	-68.44
607.286	-17.24
607.484	42.15
607.681	-19.29
607.879	19.63
608.076	56.49
608.273	-23.38
608.471	-103.25
608.668	60.59
608.866	54.44
609.063	27.82
609.26	29.87
609.458	99.5
609.655	136.36
609.852	-4.95
610.05	95.4
610.247	81.07
610.444	70.83
610.642	-103.25
610.839	3.24
611.036	52.39
611.233	44.2
611.431	-17.24
611.628	36.01
611.825	74.92
612.022	-2.9
612.22	66.73
612.417	-39.76
612.614	-78.68
612.811	-25.43
613.008	54.44
613.205	-54.1
613.402	17.58
613.6	-29.52
613.797	-52.05
613.994	46.25
614.191	60.59
614.388	-2.9
614.585	-9.05
614.782	-19.29
614.979	68.78
615.176	-27.48
615.373	81.07
615.57	-35.67
615.767	19.63
615.964	-31.57
616.161	21.67
616.358	17.58
616.555	1.19
616.752	-23.38
616.949	105.64
617.146	-58.2
617.343	-21.33
617.539	-74.58
617.736	19.63
617.933	-4.95
618.13	89.26
618.327	60.59
618.524	62.63
618.721	-4.95
618.917	23.72
619.114	29.87
619.311	-17.24
619.508	-68.44
619.704	-37.72
619.901	-78.68
620.098	27.82
620.295	29.87
620.491	66.73
620.688	-29.52
620.885	81.07
621.081	74.92
621.278	-84.82
621.475	-27.48
621.671	74.92
621.868	-86.87
622.065	-9.05
622.261	167.08
622.458	-15.19
622.655	29.87
622.851	44.2
623.048	56.49
623.244	52.39
623.441	-90.96
623.637	95.4
623.834	27.82
624.03	38.06
624.227	31.91
624.423	101.55
624.62	-15.19
624.816	48.3
625.013	-103.25
625.209	60.59
625.406	38.06
625.602	11.43
625.798	-25.43
625.995	-37.72
626.191	-0.85
626.388	52.39
626.584	70.83
626.78	-37.72
626.977	27.82
627.173	-11.09
627.369	23.72
627.566	46.25
627.762	40.11
627.958	115.88
628.154	-21.33
628.351	25.77
628.547	50.35
628.743	76.97
628.939	-23.38
629.136	-39.76
629.332	-31.57
629.528	-43.86
629.724	-17.24
629.92	-7
630.116	-117.59
630.313	42.15
630.509	40.11
630.705	-29.52
630.901	-31.57
631.097	-45.91
631.293	79.02
631.489	9.39
631.685	72.87
631.881	15.53
632.077	-37.72
632.273	23.72
632.469	-82.77
632.665	11.43
632.861	1.19
633.057	93.35
633.253	-115.54
633.449	23.72
633.645	70.83
633.841	44.2
634.037	29.87
634.233	23.72
634.429	-31.57
634.625	44.2
634.821	-62.29
635.017	-41.81
635.212	74.92
635.408	-60.24
635.604	13.48
635.8	68.78
635.996	13.48
636.191	29.87
636.387	83.11
636.583	48.3
636.779	-72.53
636.975	-31.57
637.17	-15.19
637.366	48.3
637.562	-17.24
637.757	48.3
637.953	-19.29
638.149	-84.82
638.345	-56.15
638.54	31.91
638.736	-93.01
638.931	83.11
639.127	-95.06
639.323	31.91
639.518	9.39
639.714	128.17
639.909	5.29
640.105	87.21
640.301	76.97
640.496	36.01
640.692	-39.76
640.887	21.67
641.083	64.68
641.278	-27.48
641.474	70.83
641.669	-64.34
641.865	56.49
642.06	25.77
642.256	19.63
642.451	-41.81
642.646	-80.72
642.842	-15.19
643.037	7.34
643.233	-31.57
643.428	31.91
643.623	-13.14
643.819	7.34
644.014	1.19
644.209	62.63
644.405	-21.33
644.6	29.87
644.795	-11.09
644.99	44.2
645.186	44.2
645.381	-23.38
645.576	-11.09
645.771	-43.86
645.967	-74.58
646.162	13.48
646.357	-37.72
646.552	-27.48
646.747	-88.92
646.943	48.3
647.138	-29.52
647.333	-23.38
647.528	85.16
647.723	-99.16
647.918	-2.9
648.113	-17.24
648.308	27.82
648.504	-9.05
648.699	-19.29
648.894	7.34
649.089	38.06
649.284	1.19
649.479	-31.57
649.674	27.82
649.869	-33.62
650.064	5.29
650.259	-0.85
650.454	60.59
650.649	-25.43
650.844	46.25
651.038	99.5
651.233	-21.33
651.428	-21.33
651.623	17.58
651.818	-11.09
652.013	-13.14
652.208	-23.38
652.403	-54.1
652.597	33.96
652.792	-31.57
652.987	13.48
653.182	-39.76
653.377	25.77
653.571	-31.57
653.766	31.91
653.961	25.77
654.156	-17.24
654.35	25.77
654.545	-19.29
654.74	23.72
654.935	-88.92
655.129	-33.62
655.324	29.87
655.519	-35.67
655.713	-43.86
655.908	60.59
656.102	-64.34
656.297	5.29
656.492	-111.44
656.686	-41.81
656.881	44.2
657.075	-37.72
657.27	-9.05
657.464	89.26
657.659	-11.09
657.854	-0.85
658.048	-64.34
658.243	25.77
658.437	156.84
658.631	40.11
658.826	-33.62
659.02	-138.07
659.215	-27.48
659.409	-13.14
659.604	38.06
659.798	31.91
659.992	-82.77
660.187	-17.24
660.381	17.58
660.576	-52.05
660.77	99.5
660.964	-19.29
661.159	-15.19
661.353	-133.97
661.547	-23.38
661.742	54.44
661.936	105.64
662.13	-19.29
662.324	46.25
662.519	-11.09
662.713	-2.9
662.907	-29.52
663.101	-52.05
663.295	-25.43
663.49	38.06
663.684	-23.38
663.878	-43.86
664.072	-144.21
664.266	-15.19
664.46	-7
664.654	-23.38
664.849	-43.86
665.043	-52.05
665.237	23.72
665.431	189.61
665.625	-15.19
665.819	48.3
666.013	-23.38
666.207	111.78
666.401	54.44
666.595	44.2
666.789	-117.59
666.983	15.53
667.177	44.2
667.371	-29.52
667.565	40.11
667.759	-47.96
667.953	50.35
668.147	-58.2
668.34	17.58
668.534	21.67
668.728	52.39
668.922	109.74
669.116	36.01
669.31	-58.2
669.504	56.49
669.697	46.25
669.891	64.68
670.085	-54.1
670.279	-27.48
670.473	7.34
670.666	50.35
670.86	72.87
671.054	-27.48
671.248	-17.24
671.441	52.39
671.635	1.19
671.829	48.3
672.022	-21.33
672.216	-33.62
672.41	54.44
672.603	-2.9
672.797	197.8
672.99	-80.72
673.184	17.58
673.378	83.11
673.571	17.58
673.765	3.24
673.958	58.54
674.152	76.97
674.345	79.02
674.539	-80.72
674.733	142.5
674.926	-47.96
675.12	1.19
675.313	-2.9
675.506	74.92
675.7	-64.34
675.893	85.16
676.087	46.25
676.28	-29.52
676.474	72.87
676.667	156.84
676.86	-21.33
677.054	64.68
677.247	-123.73
677.441	33.96
677.634	-58.2
677.827	-9.05
678.02	54.44
678.214	101.55
678.407	38.06
678.6	11.43
678.794	17.58
678.987	-11.09
679.18	1.19
679.373	-41.81
679.567	27.82
679.76	21.67
679.953	-35.67
680.146	13.48
680.339	-103.25
680.533	3.24
680.726	27.82
680.919	27.82
681.112	1.19
681.305	46.25
681.498	-2.9
681.691	40.11
681.884	25.77
682.077	-39.76
682.271	3.24
682.464	91.31
682.657	48.3
682.85	1.19
683.043	-84.82
683.236	-13.14
683.429	-68.44
683.622	-15.19
683.815	111.78
684.008	-84.82
684.201	-39.76
684.393	-43.86
684.586	-0.85
684.779	81.07
684.972	-56.15
685.165	21.67
685.358	48.3
685.551	3.24
685.744	-2.9
685.937	50.35
686.129	-0.85
686.322	76.97
686.515	-7
686.708	-25.43
686.901	7.34
687.093	13.48
687.286	5.29
687.479	-39.76
687.672	19.63
687.864	-62.29
688.057	-23.38
688.25	-64.34
688.442	9.39
688.635	-4.95
688.828	1.19
689.02	-15.19
689.213	-0.85
689.406	-7
689.598	-15.19
689.791	-33.62
689.984	62.63
690.176	-45.91
690.369	-2.9
690.561	40.11
690.754	-109.4
690.946	48.3
691.139	-9.05
691.331	97.45
691.524	23.72
691.716	74.92
691.909	-37.72
692.101	42.15
692.294	-41.81
692.486	-0.85
692.679	-27.48
692.871	29.87
693.063	-133.97
693.256	52.39
693.448	-43.86
693.641	-76.63
693.833	244.9
694.025	105.64
694.218	-7
694.41	36.01
694.602	46.25
694.795	54.44
694.987	1029.27
695.179	9294.88
695.372	15532.99
695.564	11551.74
695.756	9333.79
695.948	4303.98
696.14	2333.83
696.333	615.59
696.525	87.21
696.717	50.35
696.909	15.53
697.101	-72.53
697.294	-117.59
697.486	-2.9
697.678	-29.52
697.87	54.44
698.062	-33.62
698.254	-37.72
698.446	-58.2
698.638	136.36
698.83	-7
699.022	9.39
699.215	31.91
699.407	89.26
699.599	23.72
699.791	9.39
699.983	9.39
700.175	-9.05
700.367	-17.24
700.558	-2.9
700.75	-41.81
700.942	-31.57
701.134	56.49
701.326	52.39
701.518	-78.68
701.71	-82.77
701.902	1.19
702.094	27.82
702.286	66.73
702.477	-95.06
702.669	-21.33
702.861	3.24
703.053	-80.72
703.245	83.11
703.436	11.43
703.628	-109.4
703.82	11.43
704.012	-76.63
704.203	81.07
704.395	23.72
704.587	5.29
704.779	99.5
704.97	-21.33
705.162	1514.64
705.354	8934.43
705.545	13951.96
705.737	12336.11
705.929	6743.11
706.12	5270.62
706.312	1506.45
706.503	537.76
706.695	-27.48
706.887	136.36
707.078	56.49
707.27	46.25
707.461	-2.9
707.653	72.87
707.844	-15.19
708.036	-11.09
708.227	44.2
708.419	13.48
708.61	83.11
708.802	-23.38
708.993	-86.87
709.185	33.96
709.376	-50
709.567	68.78
709.759	15.53
709.95	62.63
710.141	36.01
710.333	-166.74
710.524	-70.48
710.716	-58.2
710.907	38.06
711.098	3.24
711.289	76.97
711.481	-52.05
711.672	107.69
711.863	-39.76
712.055	-27.48
712.246	-13.14
712.437	122.02
712.628	-68.44
712.82	-31.57
713.011	-41.81
713.202	-21.33
713.393	-19.29
713.584	101.55
713.775	9.39
713.967	-4.95
714.158	33.96
714.349	68.78
714.54	-23.38
714.731	-4.95
714.922	54.44
715.113	-45.91
715.304	52.39
715.495	13.48
715.686	-115.54
715.877	33.96
716.068	-43.86
716.259	3.24
716.45	-19.29
716.641	-47.96
716.832	-56.15
717.023	36.01
717.214	-54.1
717.405	-19.29
717.596	42.15
717.787	36.01
717.978	-43.86
718.169	5.29
718.36	13.48
718.55	-33.62
718.741	56.49
718.932	76.97
719.123	-68.44
719.314	-7
719.505	5.29
719.695	17.58
719.886	95.4
720.077	-27.48
720.268	36.01
720.458	142.5
720.649	46.25
720.84	-9.05
721.031	-37.72
721.221	-11.09
721.412	-9.05
721.603	-13.14
721.793	-68.44
721.984	5.29
722.175	-11.09
722.365	-80.72
722.556	-39.76
722.746	15.53
722.937	-9.05
723.128	58.54
723.318	-25.43
723.509	19.63
723.699	40.11
723.89	9.39
724.08	-29.52
724.271	-64.34
724.461	17.58
724.652	-60.24
724.842	-11.09
725.033	-25.43
725.223	1.19
725.414	27.82
725.604	-62.29
725.794	-19.29
725.985	-7
726.175	54.44
726.366	48.3
726.556	5.29
726.746	-50
726.937	21.67
727.127	66.73
727.317	29.87
727.508	-23.38
727.698	-39.76
727.888	44.2
728.079	-105.3
728.269	7.34
728.459	1.19
728.649	7.34
728.84	62.63
729.03	-9.05
729.22	23.72
729.41	46.25
729.6	113.83
729.791	62.63
729.981	13.48
730.171	-35.67
730.361	19.63
730.551	-7
730.741	154.79
730.931	-84.82
731.121	3.24
731.311	9.39
731.502	105.64
731.692	36.01
731.882	-80.72
732.072	17.58
732.262	87.21
732.452	58.54
732.642	25.77
732.832	-7
733.022	31.91
733.212	-15.19
733.402	113.83
733.591	-0.85
733.781	-27.48
733.971	1.19
734.161	68.78
734.351	-60.24
734.541	56.49
734.731	-60.24
734.921	-27.48
735.111	85.16
735.3	25.77
735.49	27.82
735.68	76.97
735.87	-23.38
736.06	52.39
736.249	44.2
736.439	-62.29
736.629	273.57
736.819	2051.21
737.008	9972.75
737.198	20521.84
737.388	20788.08
737.577	15141.83
737.767	12940.26
737.957	7334.97
738.146	5035.1
738.336	1494.16
738.526	685.22
738.715	298.15
738.905	56.49
739.094	83.11
739.284	146.6
739.474	7.34
739.663	-54.1
739.853	29.87
740.042	-31.57
740.232	21.67
740.421	15.53
740.611	-25.43
740.8	27.82
740.99	68.78
741.179	85.16
741.369	105.64
741.558	70.83
741.748	-82.77
741.937	38.06
742.126	38.06
742.316	62.63
742.505	105.64
742.695	5.29
742.884	42.15
743.073	-31.57
743.263	27.82
743.452	-45.91
743.641	-21.33
743.831	-23.38
744.02	89.26
744.209	-11.09
744.398	85.16
744.588	-45.91
744.777	70.83
744.966	17.58
745.155	-0.85
745.345	-13.14
745.534	83.11
745.723	-2.9
745.912	33.96
746.101	19.63
746.29	136.36
746.48	52.39
746.669	31.91
746.858	-9.05
747.047	-9.05
747.236	-9.05
747.425	25.77
747.614	-11.09
747.803	124.07
747.992	44.2
748.181	83.11
748.37	68.78
748.559	25.77
748.748	-29.52
748.937	1082.52
749.126	6792.26
749.315	12317.68
749.504	15373.25
749.693	12456.94
749.882	13093.86
750.071	14906.31
750.26	19075.98
750.449	22137.69
750.638	22436.69
750.826	14455.76
751.015	13108.19
751.204	8999.97
751.393	5184.6
751.582	2247.82
751.771	1600.66
751.959	310.44
752.148	238.76
752.337	101.55
752.526	40.11
752.714	48.3
752.903	9.39
753.092	46.25
753.281	68.78
753.469	21.67
753.658	44.2
753.847	-23.38
754.035	29.87
754.224	54.44
754.413	-4.95
754.601	-43.86
754.79	9.39
754.979	33.96
755.167	33.96
755.356	25.77
755.544	-103.25
755.733	-2.9
755.921	-54.1
756.11	52.39
756.298	23.72
756.487	-33.62
756.675	11.43
756.864	42.15
757.052	-45.91
757.241	-29.52
757.429	-74.58
757.618	-2.9
757.806	64.68
757.995	-43.86
758.183	-23.38
758.371	-58.2
758.56	56.49
758.748	-105.3
758.937	-41.81
759.125	25.77
759.313	21.67
759.502	-37.72
759.69	-66.39
759.878	31.91
760.066	-37.72
760.255	50.35
760.443	-7
760.631	44.2
760.819	15.53
761.008	13.48
761.196	58.54
761.384	31.91
761.572	275.62
761.761	1236.12
761.949	5758.03
762.137	13509.6
762.325	25928.48
762.513	34413.21
762.701	41601.58
762.889	35017.36
763.077	26645.27
763.266	22235.99
763.454	16618.41
763.642	10282
763.83	8066.1
764.018	4430.95
764.206	2393.22
764.394	1027.23
764.582	525.47
764.77	126.12
764.958	52.39
765.146	48.3
765.334	29.87
765.522	48.3
765.71	-37.72
765.898	140.46
766.085	66.73
766.273	-9.05
766.461	-72.53
766.649	66.73
766.837	54.44
767.025	46.25
767.213	19.63
767.401	-4.95
767.588	-4.95
767.776	29.87
767.964	25.77
768.152	27.82
768.339	17.58
768.527	54.44
768.715	-37.72
768.903	-27.48
769.09	89.26
769.278	-54.1
769.466	46.25
769.654	17.58
769.841	3.24
770.029	11.43
770.217	-54.1
770.404	44.2
770.592	81.07
770.779	31.91
770.967	242.85
771.155	3800.18
771.342	13861.85
771.53	15934.39
771.717	13704.15
771.905	11805.69
772.092	7398.46
772.28	4072.56
772.467	3331.19
772.655	355.49
772.842	187.56
773.03	3.24
773.217	-4.95
773.405	60.59
773.592	52.39
773.78	3.24
773.967	-39.76
774.154	64.68
774.342	-68.44
774.529	-25.43
774.717	81.07
774.904	70.83
775.091	42.15
775.279	-7
775.466	46.25
775.653	7.34
775.841	25.77
776.028	48.3
776.215	-31.57
776.402	27.82
776.59	-54.1
776.777	-17.24
776.964	25.77
777.151	-27.48
777.338	54.44
777.526	-52.05
777.713	74.92
777.9	40.11
778.087	76.97
778.274	44.2
778.461	-41.81
778.649	5.29
778.836	29.87
779.023	-97.11
779.21	44.2
779.397	-70.48
779.584	5.29
779.771	70.83
779.958	85.16
780.145	-60.24
780.332	1.19
780.519	-2.9
780.706	93.35
780.893	-33.62
781.08	126.12
781.267	1.19
781.454	25.77
781.641	72.87
781.828	70.83
782.015	-7
782.202	-64.34
782.388	21.67
782.575	-66.39
782.762	85.16
782.949	-25.43
783.136	-0.85
783.323	1.19
783.509	23.72
783.696	-21.33
783.883	1.19
784.07	79.02
784.257	9.39
784.443	-82.77
784.63	36.01
784.817	-136.02
785.004	-70.48
785.19	19.63
785.377	58.54
785.564	83.11
785.75	-56.15
785.937	29.87
786.124	60.59
786.31	-76.63
786.497	-76.63
786.683	36.01
786.87	58.54
787.057	74.92
787.243	-54.1
787.43	-41.81
787.616	103.59
787.803	-0.85
787.989	17.58
788.176	46.25
788.362	58.54
788.549	68.78
788.735	60.59
788.922	-68.44
789.108	-50
789.295	-107.35
789.481	23.72
789.668	111.78
789.854	-23.38
790.04	66.73
790.227	-21.33
790.413	-17.24
790.599	-82.77
790.786	46.25
790.972	-56.15
791.158	48.3
791.345	-2.9
791.531	64.68
791.717	-95.06
791.904	13.48
792.09	50.35
792.276	-11.09
792.462	-4.95
792.649	46.25
792.835	-33.62
793.021	-29.52
793.207	42.15
793.393	23.72
793.58	185.51
793.766	3005.56
793.952	8606.76
794.138	13745.11
794.324	11252.73
794.51	7490.62
794.696	4658.28
794.882	3695.73
795.069	955.55
795.255	435.36
795.441	83.11
795.627	46.25
795.813	-11.09
795.999	91.31
796.185	25.77
796.371	-15.19
796.557	29.87
796.743	15.53
796.929	-84.82
797.115	-11.09
797.3	-37.72
797.486	52.39
797.672	-23.38
797.858	-13.14
798.044	66.73
798.23	40.11
798.416	11.43
798.602	-15.19
798.788	109.74
798.973	74.92
799.159	-9.05
799.345	-31.57
799.531	23.72
799.717	935.07
799.902	4342.89
800.088	5925.97
800.274	5096.54
800.46	9202.72
800.645	13798.36
800.831	15850.42
801.017	12086.26
801.202	11377.66
801.388	6833.22
801.574	4303.98
801.759	1805.46
801.945	1189.02
802.131	185.51
802.316	117.93
802.502	1.19
802.687	-17.24
802.873	-13.14
803.058	74.92
803.244	25.77
803.43	111.78
803.615	93.35
803.801	87.21
803.986	-47.96
804.172	-99.16
804.357	-13.14
804.543	-31.57
804.728	9.39
804.913	1.19
805.099	74.92
805.284	-60.24
805.47	-11.09
805.655	-33.62
805.84	27.82
806.026	27.82
806.211	-27.48
806.397	54.44
806.582	46.25
806.767	76.97
806.953	23.72
807.138	5.29
807.323	-72.53
807.508	46.25
807.694	-64.34
807.879	-2.9
808.064	33.96
808.249	58.54
808.435	21.67
808.62	19.63
808.805	-84.82
808.99	767.13
809.175	2077.83
809.361	6050.89
809.546	12520.43
809.731	21777.25
809.916	21939.04
810.101	20233.08
810.286	23018.32
810.471	26458.9
810.656	27636.48
810.841	32309.95
811.026	38677.08
811.211	38392.42
811.396	32627.38
811.581	29457.13
811.766	25359.14
811.951	20040.57
812.136	14582.73
812.321	12690.41
812.506	9387.04
812.691	6333.51
812.876	4115.56
813.061	3325.05
813.246	1092.76
813.431	347.3
813.616	119.98
813.801	191.66
813.986	27.82
814.17	76.97
814.355	44.2
814.54	50.35
814.725	56.49
814.91	11.43
815.094	81.07
815.279	-50
815.464	46.25
815.649	-74.58
815.833	25.77
816.018	21.67
816.203	44.2
816.388	62.63
816.572	19.63
816.757	23.72
816.942	103.59
817.126	46.25
817.311	87.21
817.496	54.44
817.68	-70.48
817.865	40.11
818.049	19.63
818.234	38.06
818.419	-47.96
818.603	64.68
818.788	36.01
818.972	13.48
819.157	-47.96
819.341	62.63
819.526	-95.06
819.71	7.34
819.895	97.45
820.079	1.19
820.264	-101.2
820.448	7.34
820.633	-13.14
820.817	-19.29
821.001	70.83
821.186	-15.19
821.37	-84.82
821.554	9.39
821.739	-23.38
821.923	27.82
822.108	38.06
822.292	79.02
822.476	-2.9
822.66	27.82
822.845	117.93
823.029	23.72
823.213	81.07
823.398	-11.09
823.582	44.2
823.766	66.73
823.95	13.48
824.134	-68.44
824.319	-25.43
824.503	5.29
824.687	56.49
824.871	-13.14
825.055	36.01
825.239	-7
825.423	54.44
825.608	48.3
825.792	341.16
825.976	4394.09
826.16	5708.88
826.344	4443.24
826.528	1979.53
826.712	1787.02
826.896	332.97
827.08	136.36
827.264	1.19
827.448	-17.24
827.632	66.73
827.816	58.54
828	-31.57
828.184	-41.81
828.368	50.35
828.552	-19.29
828.736	-4.95
828.919	15.53
829.103	-31.57
829.287	44.2
829.471	85.16
829.655	1.19
829.839	72.87
830.023	40.11
830.206	-35.67
830.39	52.39
830.574	17.58
830.758	-19.29
830.941	101.55
831.125	-45.91
831.309	-15.19
831.493	74.92
831.676	5.29
831.86	-31.57
832.044	7.34
832.227	66.73
832.411	70.83
832.595	62.63
832.778	107.69
832.962	11.43
833.146	72.87
833.329	52.39
833.513	-37.72
833.696	13.48
833.88	-78.68
834.064	-27.48
834.247	128.17
834.431	15.53
834.614	-2.9
834.798	-41.81
834.981	-37.72
835.165	3.24
835.348	-86.87
835.532	23.72
835.715	-11.09
835.898	-27.48
836.082	-7
836.265	119.98
836.449	27.82
836.632	60.59
836.815	17.58
836.999	-54.1
837.182	58.54
837.365	-25.43
837.549	66.73
837.732	-23.38
837.915	81.07
838.099	5.29
838.282	93.35
838.465	29.87
838.648	-58.2
838.832	-31.57
839.015	87.21
839.198	-19.29
839.381	-62.29
839.565	58.54
839.748	58.54
839.931	68.78
840.114	445.6
840.297	4068.46
840.48	8776.74
840.663	13353.95
840.847	11629.56
841.03	10079.25
841.213	8105.01
841.396	8125.49
841.579	6327.37
841.762	6962.24
841.945	8725.54
842.128	13263.84
842.311	15934.39
842.494	14603.21
842.677	11830.26
842.86	10552.33
843.043	7777.33
843.226	5477.46
843.409	2520.2
843.592	1961.1
843.775	466.08
843.958	56.49
844.141	44.2
844.323	-2.9
844.506	105.64
844.689	56.49
844.872	115.88
845.055	-78.68
845.238	93.35
845.42	-11.09
845.603	-27.48
845.786	91.31
845.969	-0.85
846.152	15.53
846.334	-25.43
846.517	23.72
846.7	-68.44
846.883	5.29
847.065	-29.52
847.248	-21.33
847.431	-23.38
847.613	-76.63
847.796	40.11
847.979	87.21
848.161	36.01
848.344	-47.96
848.526	-13.14
848.709	-39.76
848.892	44.2
849.074	-37.72
849.257	-101.2
849.439	25.77
849.622	-52.05
849.804	3.24
849.987	107.69
850.169	64.68
850.352	21.67
850.534	-58.2
850.717	-9.05
850.899	9.39
851.082	40.11
851.264	23.72
851.446	-13.14
851.629	-11.09
851.811	-76.63
851.994	199.85
852.176	1283.22
852.358	1000.6
852.541	167.08
852.723	93.35
852.905	36.01
853.088	-9.05
853.27	11.43
853.452	-62.29
853.635	-11.09
853.817	-66.39
853.999	42.15
854.181	-56.15
854.363	101.55
854.546	-35.67
854.728	-90.96
854.91	33.96
855.092	17.58
855.274	-41.81
855.457	-25.43
855.639	-33.62
855.821	-11.09
856.003	-39.76
856.185	-60.24
856.367	148.65
856.549	-23.38
856.731	17.58
856.913	38.06
857.095	-0.85
857.277	-4.95
857.459	-62.29
857.641	-43.86
857.823	-64.34
858.005	33.96
858.187	11.43
858.369	-93.01
858.551	-2.9
858.733	1.19
858.915	-60.24
859.097	-47.96
859.279	68.78
859.461	7.34
859.643	15.53
859.824	7.34
860.006	13.48
860.188	-21.33
860.37	-60.24
860.552	36.01
860.734	64.68
860.915	54.44
861.097	-13.14
861.279	-0.85
861.461	-140.12
861.642	-0.85
861.824	-78.68
862.006	23.72
862.188	-7
862.369	79.02
862.551	-43.86
862.733	76.97
862.914	-17.24
863.096	-54.1
863.278	-52.05
863.459	74.92
863.641	70.83
863.822	122.02
864.004	-68.44
864.185	-72.53
864.367	-19.29
864.549	-54.1
864.73	105.64
864.912	105.64
865.093	-70.48
865.275	13.48
865.456	23.72
865.638	7.34
865.819	13.48
866.001	-37.72
866.182	60.59
866.363	50.35
866.545	-86.87
866.726	5.29
866.908	42.15
867.089	72.87
867.27	27.82
867.452	-23.38
867.633	91.31
867.814	52.39
867.996	-35.67
868.177	-21.33
868.358	-39.76
868.54	-74.58
868.721	-27.48
868.902	-156.5
869.083	72.87
869.265	29.87
869.446	62.63
869.627	-31.57
869.808	13.48
869.989	52.39
870.171	64.68
870.352	-86.87
870.533	7.34
870.714	-64.34
870.895	-19.29
871.076	-56.15
871.257	40.11
871.438	-88.92
871.619	11.43
871.801	-33.62
871.982	-45.91
872.163	5.29
872.344	-13.14
872.525	83.11
872.706	-25.43
872.887	-31.57
873.068	23.72
873.249	-23.38
873.43	-72.53
873.61	7.34
873.791	-0.85
873.972	99.5
874.153	134.31
874.334	64.68
874.515	29.87
874.696	52.39
874.877	56.49
875.058	-2.9
875.238	21.67
875.419	-35.67
875.6	15.53
875.781	-56.15
875.962	-43.86
876.142	40.11
876.323	-80.72
876.504	50.35
876.685	13.48
876.865	13.48
877.046	-29.52
877.227	-19.29
877.407	-2.9
877.588	13.48
877.769	-35.67
877.949	25.77
878.13	-23.38
878.311	58.54
878.491	-56.15
878.672	-62.29
878.853	21.67
879.033	-19.29
879.214	-50
879.394	-15.19
879.575	29.87
879.755	-17.24
879.936	-11.09
880.116	-78.68
880.297	44.2
880.477	5.29
880.658	-47.96
880.838	19.63
881.019	33.96
881.199	31.91
881.38	-19.29
881.56	58.54
881.74	17.58
881.921	-35.67
882.101	66.73
882.281	101.55
882.462	-17.24
882.642	-47.96
882.822	64.68
883.003	42.15
883.183	52.39
883.363	-11.09
883.544	76.97
883.724	-45.91
883.904	-19.29
884.084	-84.82
884.265	29.87
884.445	-39.76
884.625	27.82
884.805	-60.24
884.985	-15.19
885.166	21.67
885.346	-72.53
885.526	11.43
885.706	-62.29
885.886	44.2
886.066	-11.09
886.246	-60.24
886.426	-93.01
886.606	5.29
886.787	5.29
886.967	-72.53
887.147	-62.29
887.327	99.5
887.507	15.53
887.687	5.29
887.867	-72.53
888.047	-19.29
888.227	-11.09
888.406	1.19
888.586	-27.48
888.766	-109.4
888.946	144.55
889.126	52.39
889.306	-31.57
889.486	-33.62
889.666	-27.48
889.846	-86.87
890.025	-31.57
890.205	-72.53
890.385	-21.33
890.565	93.35
890.745	-31.57
890.924	-25.43
891.104	-47.96
891.284	-56.15
891.464	62.63
891.643	46.25
891.823	-70.48
892.003	105.64
892.183	27.82
892.362	85.16
892.542	126.12
892.722	87.21
892.901	-105.3
893.081	48.3
893.26	9.39
893.44	29.87
893.62	40.11
893.799	-13.14
893.979	11.43
894.158	-33.62
894.338	-107.35
894.517	64.68
894.697	33.96
894.877	1.19
895.056	13.48
895.236	42.15
895.415	-2.9
895.594	105.64
895.774	44.2
895.953	-0.85
896.133	-35.67
896.312	87.21
896.492	1.19
896.671	46.25
896.85	-35.67
897.03	1.19
897.209	44.2
897.388	17.58
897.568	-41.81
897.747	-21.33
897.926	1.19
898.106	-15.19
898.285	-13.14
898.464	-15.19
898.643	-54.1
898.823	-9.05
899.002	-39.76
899.181	-52.05
899.36	-82.77
899.54	87.21
899.719	23.72
899.898	-9.05
900.077	-4.95
900.256	91.31
900.435	25.77
900.614	-13.14
900.794	17.58
900.973	79.02
901.152	9.39
901.331	136.36
901.51	-54.1
901.689	48.3
901.868	15.53
902.047	54.44
902.226	40.11
902.405	-15.19
902.584	-45.91
902.763	-68.44
902.942	-19.29
903.121	105.64
903.3	23.72
903.479	-35.67
903.658	-33.62
903.837	-43.86
904.015	9.39
904.194	7.34
904.373	-2.9
904.552	17.58
904.731	-23.38
904.91	50.35
905.089	-19.29
905.267	9.39
905.446	-60.24
905.625	-66.39
905.804	54.44
905.982	50.35
906.161	58.54
906.34	-56.15
906.519	9.39
906.697	-2.9
906.876	-35.67
907.055	11.43
907.233	-52.05
907.412	66.73
907.591	23.72
907.769	44.2
907.948	-45.91
908.127	40.11
908.305	-82.77
908.484	5.29
908.662	-13.14
908.841	-56.15
909.019	-13.14
909.198	36.01
909.377	-68.44
909.555	-11.09
909.734	19.63
909.912	31.91
910.09	46.25
910.269	60.59
910.447	-37.72
910.626	-15.19
910.804	-13.14
910.983	-7
911.161	74.92
911.339	25.77
911.518	-25.43
911.696	1.19
911.875	-52.05
912.053	-13.14
912.231	42.15
912.41	58.54
912.588	21.67
912.766	5.29
912.944	3.24
913.123	17.58
913.301	17.58
913.479	261.29
913.657	285.86
913.836	115.88
914.014	9.39
914.192	-45.91
914.37	48.3
914.548	19.63
914.727	-4.95
914.905	50.35
915.083	-15.19
915.261	-70.48
915.439	126.12
915.617	-172.88
915.795	-0.85
915.973	-47.96
916.151	31.91
916.329	68.78
916.508	-7
916.686	95.4
916.864	-33.62
917.042	83.11
917.22	-19.29
917.398	7.34
917.575	-52.05
917.753	27.82
917.931	-9.05
918.109	-123.73
918.287	60.59
918.465	33.96
918.643	-37.72
918.821	93.35
918.999	-62.29
919.177	-37.72
919.354	-9.05
919.532	-25.43
919.71	-43.86
919.888	9.39
920.066	-19.29
920.243	17.58
920.421	27.82
920.599	5.29
920.777	-64.34
920.954	68.78
921.132	15.53
921.31	87.21
921.488	83.11
921.665	38.06
921.843	9.39
922.021	25.77
922.198	117.93
922.376	-66.39
922.553	-54.1
922.731	40.11
922.909	-66.39
923.086	-45.91
923.264	-41.81
923.441	-45.91
923.619	97.45
923.796	-19.29
923.974	29.87
924.152	-29.52
924.329	40.11
924.507	-35.67
924.684	-23.38
924.861	-37.72
925.039	-111.44
925.216	-62.29
925.394	50.35
925.571	64.68
925.749	31.91
925.926	13.48
926.103	95.4
926.281	23.72
926.458	81.07
926.635	46.25
926.813	-31.57
926.99	95.4
927.167	-136.02
927.345	-9.05
927.522	72.87
927.699	66.73
927.876	-4.95
928.054	3.24
928.231	-7
928.408	-7
928.585	105.64
928.763	5.29
928.94	68.78
929.117	-39.76
929.294	72.87
929.471	3.24
929.648	-90.96
929.825	68.78
930.003	58.54
930.18	-7
930.357	1.19
930.534	-66.39
930.711	-0.85
930.888	-111.44
931.065	70.83
931.242	-13.14
931.419	62.63
931.596	142.5
931.773	62.63
931.95	25.77
932.127	27.82
932.304	15.53
932.481	62.63
932.658	13.48
932.835	-29.52
933.011	-2.9
933.188	-35.67
933.365	-43.86
933.542	-29.52
933.719	25.77
933.896	-27.48
934.073	-35.67
934.249	13.48
934.426	66.73
934.603	-27.48
934.78	76.97
934.957	74.92
935.133	-41.81
935.31	-56.15
935.487	38.06
935.664	-60.24
935.84	87.21
936.017	-0.85
936.194	-4.95
936.37	-9.05
936.547	-23.38
936.724	17.58
936.9	29.87
937.077	-80.72
937.253	21.67
937.43	-93.01
937.607	-35.67
937.783	-54.1
937.96	-13.14
938.136	-0.85
938.313	-103.25
938.489	7.34
938.666	33.96
938.842	-13.14
939.019	62.63
939.195	-58.2
939.372	81.07
939.548	15.53
939.725	-19.29
939.901	3.24
940.077	-11.09
940.254	-80.72
940.43	-2.9
940.607	-17.24
940.783	19.63
940.959	15.53
941.136	11.43
941.312	-70.48
941.488	-54.1
941.665	-13.14
941.841	-50
942.017	40.11
942.193	91.31
942.37	-7
942.546	-54.1
942.722	-2.9
942.898	-45.91
943.074	23.72
943.251	-68.44
943.427	-37.72
943.603	-17.24
943.779	-29.52
943.955	21.67
944.131	13.48
944.308	44.2
944.484	-64.34
944.66	33.96
944.836	-27.48
945.012	-0.85
945.188	-58.2
945.364	-70.48
945.54	64.68
945.716	95.4
945.892	-17.24
946.068	33.96
946.244	-45.91
946.42	21.67
946.596	76.97
946.772	54.44
946.948	-121.68
947.124	-133.97
947.3	-7
947.475	27.82
947.651	87.21
947.827	-58.2
948.003	105.64
948.179	72.87
948.355	-56.15
948.531	68.78
948.706	-9.05
948.882	13.48
949.058	19.63
949.234	3.24
949.409	-0.85
949.585	-29.52
949.761	44.2
949.937	13.48
950.112	38.06
950.288	68.78
950.464	56.49
950.639	-19.29
950.815	-54.1
950.991	-9.05
951.166	-29.52
951.342	-74.58
951.518	25.77
951.693	33.96
951.869	-68.44
952.044	-17.24
952.22	66.73
952.395	27.82
952.571	-0.85
952.747	87.21
952.922	-52.05
953.098	-21.33
953.273	5.29
953.448	72.87
953.624	-50
953.799	62.63
953.975	-74.58
954.15	31.91
954.326	23.72
954.501	38.06
954.676	36.01
954.852	36.01
955.027	-15.19
955.203	79.02
955.378	-23.38
955.553	5.29
955.729	-31.57
955.904	-33.62
956.079	89.26
956.254	-39.76
956.43	7.34
956.605	31.91
956.78	-11.09
956.955	48.3
957.131	-21.33
957.306	-103.25
957.481	40.11
957.656	9.39
957.831	-47.96
958.007	21.67
958.182	48.3
958.357	25.77
958.532	5.29
958.707	11.43
958.882	91.31
959.057	-84.82
959.232	-43.86
959.407	62.63
959.582	-23.38
959.757	25.77
959.932	13.48
960.107	-43.86
960.282	52.39
960.457	-50
960.632	-31.57
960.807	40.11
960.982	-13.14
961.157	19.63
961.332	-62.29
961.507	44.2
961.682	-0.85
961.857	19.63
962.032	-27.48
962.206	-37.72
962.381	9.39
962.556	11.43
962.731	-41.81
962.906	64.68
963.081	19.63
963.255	62.63
963.43	-15.19
963.605	3.24
963.78	-2.9
963.954	-31.57
964.129	-7
964.304	-88.92
964.479	7.34
964.653	44.2
964.828	91.31
965.003	-47.96
965.177	-84.82
965.352	-9.05
965.526	-84.82
965.701	48.3
965.876	-23.38
966.05	40.11
966.225	-17.24
966.399	66.73
966.574	-21.33
966.748	85.16
966.923	-29.52
967.098	-45.91
967.272	33.96
967.446	13.48
967.621	-78.68
967.795	72.87
967.97	-9.05
968.144	40.11
968.319	-11.09
968.493	-19.29
968.668	3.24
968.842	-17.24
969.016	-7
969.191	-15.19
969.365	-60.24
969.539	74.92
969.714	-93.01
969.888	58.54
970.062	-78.68
970.237	13.48
970.411	-117.59
970.585	-27.48
970.759	-33.62
970.934	-90.96
971.108	-58.2
971.282	-15.19
971.456	83.11
971.63	11.43
971.805	-25.43
971.979	72.87
972.153	-109.4
972.327	27.82
972.501	-31.57
972.675	81.07
972.849	-45.91
973.024	3.24
973.198	62.63
973.372	-31.57
973.546	42.15
973.72	-50
973.894	58.54
974.068	-9.05
974.242	-64.34
974.416	52.39
974.59	-27.48
974.764	124.07
974.938	-7
975.112	40.11
975.286	-93.01
975.46	-7
975.633	113.83
975.807	-54.1
975.981	-82.77
976.155	68.78
976.329	-72.53
976.503	-4.95
976.677	-76.63
976.85	66.73
977.024	7.34
977.198	50.35
977.372	-19.29
977.546	27.82
977.719	101.55
977.893	46.25
978.067	23.72
978.241	-13.14
978.414	-2.9
978.588	-4.95
978.762	-66.39
978.935	-45.91
979.109	-9.05
979.283	40.11
979.456	156.84
979.63	29.87
979.804	48.3
979.977	-84.82
980.151	42.15
980.324	-19.29
980.498	-9.05
980.671	11.43
980.845	-9.05
981.018	-2.9
981.192	17.58
981.365	19.63
981.539	91.31
981.712	113.83
981.886	64.68
982.059	-31.57
982.233	-17.24
982.406	5.29
982.58	-52.05
982.753	-23.38
982.926	-11.09
983.1	-74.58
983.273	-9.05
983.446	105.64
983.62	-13.14
983.793	-45.91
983.966	-33.62
984.14	54.44
984.313	-72.53
984.486	-7
984.66	27.82
984.833	-43.86
985.006	27.82
985.179	-7
985.352	21.67
985.526	-13.14
985.699	-41.81
985.872	-2.9
986.045	91.31
986.218	-2.9
986.391	-15.19
986.565	-21.33
986.738	27.82
986.911	42.15
987.084	-43.86
987.257	101.55
987.43	-37.72
987.603	-23.38
987.776	7.34
987.949	-39.76
988.122	-84.82
988.295	130.22
988.468	25.77
988.641	-0.85
988.814	-82.77
988.987	38.06
989.16	31.91
989.333	5.29
989.506	-11.09
989.679	-15.19
989.852	-45.91
990.025	29.87
990.197	15.53
990.37	23.72
990.543	-23.38
990.716	52.39
990.889	-0.85
991.062	-93.01
991.234	13.48
991.407	1.19
991.58	-4.95
991.753	-45.91
991.925	74.92
992.098	21.67
992.271	-93.01
992.444	-0.85
992.616	56.49
992.789	15.53
992.962	-99.16
993.134	48.3
993.307	-31.57
993.479	44.2
993.652	-45.91
993.825	38.06
993.997	40.11
994.17	29.87
994.342	-84.82
994.515	-0.85
994.688	9.39
994.86	11.43
995.033	29.87
995.205	-4.95
995.378	27.82
995.55	-31.57
995.723	-7
995.895	-17.24
996.067	-136.02
996.24	40.11
996.412	-4.95
996.585	40.11
996.757	-50
996.929	-17.24
997.102	11.43
997.274	46.25
997.447	-29.52
997.619	31.91
997.791	117.93
997.964	56.49
998.136	-31.57
998.308	-74.58
998.48	-43.86
998.653	-7
998.825	76.97
998.997	-41.81
999.169	74.92
999.342	93.35
999.514	-0.85
999.686	-39.76
999.858	-47.96
1000.03	-2.9
1000.202	-66.39
1000.374	91.31
1000.547	46.25
1000.719	-0.85
1000.891	81.07
1001.063	27.82
1001.235	23.72
1001.407	122.02
1001.579	19.63
1001.751	48.3
1001.923	1.19
1002.095	54.44
1002.267	-68.44
1002.439	124.07
1002.611	-58.2
1002.783	109.74
1002.955	-33.62
1003.127	113.83
1003.299	50.35
1003.471	9.39
1003.643	99.5
1003.815	-25.43
1003.986	-64.34
1004.158	-70.48
1004.33	-13.14
1004.502	58.54
1004.674	52.39
1004.846	-23.38
1005.017	-9.05
1005.189	-23.38
1005.361	-2.9
1005.533	76.97
1005.704	38.06
1005.876	-54.1
1006.048	-152.4
1006.22	21.67
1006.391	-33.62
1006.563	-35.67
1006.735	-50
1006.906	-21.33
1007.078	79.02
1007.25	3.24
1007.421	-25.43
1007.593	-88.92
1007.764	9.39
1007.936	31.91
1008.108	-31.57
1008.279	-39.76
1008.451	25.77
1008.622	23.72
1008.794	-74.58
1008.965	-4.95
1009.137	-58.2
1009.308	19.63
1009.48	50.35
1009.651	54.44
1009.823	-52.05
1009.994	97.45
1010.165	-101.2
1010.337	-54.1
1010.508	79.02
1010.68	9.39
1010.851	25.77
1011.022	11.43
1011.194	130.22
1011.365	-41.81
1011.536	33.96
1011.708	76.97
1011.879	-39.76
1012.05	54.44
1012.222	-131.92
1012.393	23.72
1012.564	-11.09
1012.735	25.77
1012.906	-23.38
1013.078	36.01
1013.249	21.67
1013.42	56.49
1013.591	64.68
1013.762	9.39
1013.934	62.63
1014.105	-39.76
1014.276	-56.15
1014.447	-47.96
1014.618	-99.16
1014.789	50.35
1014.96	5.29
1015.131	68.78
1015.302	29.87
1015.473	52.39
1015.644	1.19
1015.815	-9.05
1015.986	-37.72
1016.157	72.87
1016.328	-64.34
1016.499	-76.63
1016.67	-64.34
1016.841	-9.05
1017.012	42.15
1017.183	-21.33
1017.354	-58.2
1017.525	-64.34
1017.696	15.53
1017.867	-66.39
1018.037	-127.83
1018.208	-2.9
1018.379	-97.11
1018.55	-19.29
1018.721	60.59
1018.891	-31.57
1019.062	-47.96
1019.233	31.91
1019.404	52.39
1019.574	-62.29
1019.745	33.96
1019.916	19.63
1020.087	-9.05
1020.257	-52.05
1020.428	64.68
1020.599	74.92
1020.769	-45.91
1020.94	-68.44
1021.11	93.35
1021.281	31.91
1021.452	-23.38
1021.622	-19.29
1021.793	27.82
1021.963	-27.48
1022.134	-41.81
1022.305	-9.05
1022.475	-76.63
1022.646	93.35
1022.816	13.48
1022.987	-66.39
1023.157	-0.85
1023.327	48.3
1023.498	17.58
1023.668	31.91
1023.839	36.01
1024.009	113.83
1024.18	-15.19
1024.35	54.44
1024.52	40.11
1024.691	68.78
1024.861	-52.05
1025.031	38.06
1025.202	19.63
1025.372	21.67
1025.542	-19.29
1025.713	-144.21
1025.883	21.67
1026.053	62.63
1026.223	-13.14
1026.394	-43.86
1026.564	-99.16
1026.734	-52.05
1026.904	46.25
1027.074	-54.1
1027.245	33.96
1027.415	15.53
1027.585	-33.62
1027.755	-41.81
1027.925	105.64
1028.095	38.06
1028.265	36.01
1028.435	-13.14
1028.606	-4.95
1028.776	-43.86
1028.946	38.06
1029.116	50.35
1029.286	-54.1
1029.456	-4.95
1029.626	93.35
1029.796	27.82
1029.966	-9.05
1030.136	72.87
1030.306	-17.24
1030.475	58.54
1030.645	23.72
1030.815	44.2
1030.985	-70.48
1031.155	21.67
1031.325	-111.44
1031.495	68.78
1031.665	-58.2
1031.835	29.87
1032.004	13.48
1032.174	-31.57
1032.344	-9.05
1032.514	-13.14
1032.684	-13.14
1032.853	7.34
1033.023	70.83
1033.193	-9.05
1033.362	19.63
1033.532	-41.81
1033.702	-86.87
1033.872	70.83
1034.041	-13.14
1034.211	56.49
1034.381	19.63
1034.55	-17.24
1034.72	-90.96
1034.889	31.91
1035.059	-45.91
1035.229	-39.76
1035.398	-29.52
1035.568	-23.38
1035.737	95.4
1035.907	46.25
1036.076	7.34
1036.246	-2.9
1036.415	-41.81
1036.585	-58.2
1036.754	31.91
1036.924	-19.29
1037.093	91.31
1037.263	7.34
1037.432	-52.05
1037.601	-13.14
1037.771	5.29
1037.94	-9.05
1038.11	36.01
1038.279	7.34
1038.448	44.2
1038.618	-11.09
1038.787	-33.62
1038.956	-113.49
1039.126	-27.48
1039.295	11.43
1039.464	-7
1039.633	19.63
1039.803	-25.43
1039.972	23.72
1040.141	-13.14
1040.31	-15.19
1040.479	7.34
1040.649	-70.48
1040.818	31.91
1040.987	-68.44
1041.156	-9.05
1041.325	93.35
1041.494	38.06
1041.663	-25.43
1041.833	-60.24
1042.002	19.63
1042.171	-35.67
1042.34	99.5
1042.509	-76.63
1042.678	-25.43
