Data from Subt2_10-25-44-218.txt Node
Date: Wed Aug 09 10:25:44 EDT 2023
User: Emmanuel
Spectrometer: USB4A00615
Scans to average: 1
Trigger mode: 4
Integration Time (sec): 2.000000E-2
Electric dark correction enabled: true
Boxcar width: 0
XAxis mode: Wavelengths
Number of Pixels in Spectrum: 3648
>>>>>Begin Spectral Data<<<<<
346.606	-47.27
346.818	-47.27
347.029	-47.27
347.241	-57.51
347.452	14.17
347.664	-57.51
347.876	-2.22
348.087	18.26
348.299	61.27
348.51	44.88
348.722	12.12
348.933	16.21
349.145	-20.65
349.356	-34.99
349.568	-16.55
349.779	-2.22
349.991	-18.6
350.202	-106.67
350.414	71.51
350.625	12.12
350.836	243.54
351.048	81.75
351.259	16.21
351.471	106.32
351.682	149.33
351.893	112.47
352.105	167.76
352.316	132.95
352.527	-8.36
352.739	46.93
352.95	51.03
353.161	71.51
353.372	5.97
353.584	53.08
353.795	59.22
354.006	122.71
354.217	130.9
354.429	65.36
354.64	114.52
354.851	126.8
355.062	112.47
355.274	153.43
355.485	145.24
355.696	214.87
355.907	165.71
356.118	75.6
356.329	118.61
356.54	194.39
356.752	5.97
356.963	132.95
357.174	159.57
357.385	16.21
357.596	-30.89
357.807	184.15
358.018	132.95
358.229	102.23
358.44	173.91
358.651	75.6
358.862	143.19
359.073	165.71
359.284	38.74
359.495	196.43
359.706	137.04
359.917	106.32
360.128	75.6
360.339	184.15
360.55	126.8
360.761	210.77
360.972	202.58
361.182	-2.22
361.393	89.94
361.604	73.56
361.815	153.43
362.026	100.18
362.237	157.52
362.447	145.24
362.658	218.96
362.869	206.67
363.08	257.87
363.291	120.66
363.501	264.02
363.712	153.43
363.923	157.52
364.134	53.08
364.344	139.09
364.555	190.29
364.766	253.78
364.976	124.76
365.187	249.68
365.398	178
365.608	270.16
365.819	171.86
366.03	255.83
366.24	331.6
366.451	237.39
366.662	317.26
366.872	278.35
367.083	393.04
367.293	169.81
367.504	284.5
367.714	345.94
367.925	309.07
368.135	182.1
368.346	130.9
368.557	233.3
368.767	284.5
368.977	339.79
369.188	341.84
369.398	266.07
369.609	257.87
369.819	323.41
370.03	259.92
370.24	304.98
370.451	245.59
370.661	300.88
370.871	266.07
371.082	329.55
371.292	259.92
371.502	208.72
371.713	333.65
371.923	337.74
372.133	364.37
372.344	317.26
372.554	323.41
372.764	298.83
372.975	261.97
373.185	270.16
373.395	288.59
373.605	274.26
373.816	382.8
374.026	401.23
374.236	407.38
374.446	380.75
374.656	364.37
374.867	323.41
375.077	347.98
375.287	325.46
375.497	393.04
375.707	438.09
375.917	362.32
376.127	415.57
376.338	343.89
376.548	466.77
376.758	380.75
376.968	372.56
377.178	343.89
377.388	415.57
377.598	370.51
377.808	390.99
378.018	405.33
378.228	399.18
378.438	454.48
378.648	440.14
378.858	456.53
379.068	448.33
379.278	575.31
379.488	503.63
379.698	364.37
379.908	479.05
380.118	370.51
380.327	460.62
380.537	536.4
380.747	505.68
380.957	554.83
381.167	513.87
381.377	429.9
381.587	409.42
381.796	474.96
382.006	585.55
382.216	567.12
382.426	495.44
382.636	589.64
382.845	438.09
383.055	520.01
383.265	565.07
383.475	538.45
383.684	595.79
383.894	509.77
384.104	491.34
384.313	536.4
384.523	544.59
384.733	620.36
384.942	544.59
385.152	595.79
385.362	536.4
385.571	491.34
385.781	579.4
385.991	677.71
386.2	597.84
386.41	618.32
386.619	528.21
386.829	669.52
387.038	665.42
387.248	675.66
387.457	706.38
387.667	806.73
387.876	700.23
388.086	735.05
388.295	692.04
388.505	718.67
388.714	773.96
388.924	718.67
389.133	771.91
389.343	747.34
389.552	722.76
389.762	747.34
389.971	706.38
390.18	845.64
390.39	825.16
390.599	675.66
390.808	728.91
391.018	849.74
391.227	798.54
391.436	859.98
391.646	868.17
391.855	814.92
392.064	812.87
392.274	941.89
392.483	880.46
392.692	964.42
392.901	1032.01
393.111	843.59
393.32	999.24
393.529	902.98
393.738	960.33
393.947	968.52
394.157	960.33
394.366	853.83
394.575	1013.57
394.784	1009.48
394.993	1060.68
395.202	1105.73
395.411	1081.16
395.62	1072.96
395.83	1056.58
396.039	1005.38
396.248	1001.29
396.457	1029.96
396.666	1046.34
396.875	1013.57
397.084	1193.8
397.293	1009.48
397.502	1130.31
397.711	1113.92
397.92	931.66
398.129	1175.36
398.338	1072.96
398.547	1062.73
398.756	1158.98
398.965	1005.38
399.174	1154.88
399.382	1132.36
399.591	1120.07
399.8	1302.34
400.009	1169.22
400.218	1140.55
400.427	1222.47
400.636	1253.19
400.844	1187.65
401.053	1249.09
401.262	1265.47
401.471	1187.65
401.68	1326.91
401.888	1234.75
402.097	1208.13
402.306	1374.02
402.515	1367.87
402.723	1322.82
402.932	1267.52
403.141	1232.71
403.35	1351.49
403.558	1195.84
403.767	1335.1
403.976	1410.88
404.184	1331.01
404.393	1476.41
404.602	1316.67
404.81	1343.3
405.019	1353.54
405.227	1476.41
405.436	1474.37
405.645	1322.82
405.853	1367.87
406.062	1462.08
406.27	1468.22
406.479	1451.84
406.687	1513.28
406.896	1490.75
407.104	1404.74
407.313	1519.42
407.521	1599.29
407.73	1566.53
407.938	1707.84
408.147	1519.42
408.355	1670.97
408.563	1636.16
408.772	1636.16
408.98	1574.72
409.189	1816.38
409.397	1638.2
409.605	1705.79
409.814	1679.16
410.022	1707.84
410.23	1589.05
410.439	1765.18
410.647	1965.88
410.855	1730.36
411.064	1847.1
411.272	1728.31
411.48	1877.82
411.688	1912.63
411.897	1851.19
412.105	1945.4
412.313	1935.16
412.521	2084.66
412.73	1974.07
412.938	2082.61
413.146	1998.65
413.354	2062.13
413.562	2111.29
413.77	2281.27
413.979	2080.57
414.187	2033.46
414.395	1939.26
414.603	2309.94
414.811	2139.96
415.019	2064.18
415.227	2174.77
415.435	2350.9
415.643	2029.37
415.851	2197.3
416.059	2322.23
416.267	2213.68
416.475	2166.58
416.683	2363.19
416.891	2326.32
417.099	2422.58
417.307	2281.27
417.515	2367.28
417.723	2246.45
417.931	2340.66
418.139	2535.21
418.347	2424.62
418.555	2336.56
418.763	2410.29
418.971	2410.29
419.179	2443.06
419.386	2570.03
419.594	2512.69
419.802	2592.56
420.01	2531.12
420.218	2541.36
420.426	2602.8
420.633	2703.15
420.841	2524.97
421.049	2608.94
421.257	2676.52
421.464	2709.29
421.672	2754.35
421.88	2643.76
422.088	2633.52
422.295	2615.09
422.503	2795.31
422.711	2836.27
422.918	2821.93
423.126	2639.66
423.334	2604.85
423.541	2547.5
423.749	2965.29
423.956	2787.11
424.164	2795.31
424.372	2821.93
424.579	2883.37
424.787	2907.94
424.994	3077.93
425.202	2979.62
425.409	2879.27
425.617	2737.96
425.824	2789.16
426.032	2961.19
426.239	2776.87
426.447	2944.81
426.654	2928.42
426.862	2957.1
427.069	2993.96
427.277	3018.54
427.484	3122.98
427.692	2996.01
427.899	3059.49
428.106	2983.72
428.314	3024.68
428.521	3153.7
428.728	3143.46
428.936	3157.8
429.143	3022.63
429.351	3145.51
429.558	3258.15
429.765	3229.48
429.972	2961.19
430.18	3194.66
430.387	3264.29
430.594	3188.52
430.801	3303.2
431.009	3211.04
431.216	3284.77
431.423	2985.77
431.63	3352.35
431.838	3389.22
432.045	3297.06
432.252	3350.31
432.459	3327.78
432.666	3503.9
432.873	3387.17
433.081	3510.05
433.288	3532.58
433.495	3407.65
433.702	3577.63
433.909	3532.58
434.116	3462.94
434.323	3571.49
434.53	3585.82
434.737	3594.01
434.944	3655.45
435.151	3665.69
435.358	3589.92
435.565	3804.96
435.772	3688.22
435.979	3694.36
436.186	3843.87
436.393	3761.95
436.6	3749.66
436.807	3815.2
437.014	3927.83
437.221	3823.39
437.428	4024.09
437.635	3972.89
437.841	4116.25
438.048	3995.42
438.255	4128.53
438.462	4304.66
438.669	4163.35
438.876	4273.94
439.082	4106.01
439.289	4097.81
439.496	4253.46
439.703	4210.45
439.91	4349.71
440.116	4427.54
440.323	4396.82
440.53	4347.67
440.737	4431.63
440.943	4302.61
441.15	4546.32
441.357	4310.8
441.563	4306.71
441.77	4544.27
441.977	4568.85
442.183	4527.89
442.39	4458.26
442.597	4599.57
442.803	4894.47
443.01	4706.06
443.216	4640.53
443.423	4574.99
443.63	4706.06
443.836	4939.53
444.043	4638.48
444.249	4871.95
444.456	4851.47
444.662	4515.6
444.869	4882.19
445.075	4914.95
445.282	4792.08
445.488	4906.76
445.695	4640.53
445.901	5072.65
446.107	5109.51
446.314	5091.08
446.52	4990.73
446.727	4990.73
446.933	5203.72
447.139	5050.12
447.346	5285.64
447.552	5011.21
447.759	5136.13
447.965	5299.97
448.171	5129.99
448.378	4900.62
448.584	5392.13
448.79	5056.26
448.996	5375.75
449.203	5273.35
449.409	5037.83
449.615	5256.97
449.821	5302.02
450.028	5281.54
450.234	5338.88
450.44	5299.97
450.646	5445.38
450.852	5365.51
451.059	5476.1
451.265	5490.43
451.471	5388.04
451.677	5355.27
451.883	5613.31
452.089	5287.68
452.295	5594.88
452.502	5601.02
452.708	5388.04
452.914	5983.99
453.12	5555.97
453.326	5590.78
453.532	5789.44
453.738	5519.11
453.944	5641.98
454.15	5781.25
454.356	5822.2
454.562	5828.35
454.768	5963.51
454.974	5678.85
455.18	5674.75
455.386	5721.85
455.592	5723.9
455.798	5578.5
456.003	5768.96
456.209	5820.16
456.415	5951.23
456.621	5732.09
456.827	5601.02
457.033	5830.4
457.239	5771.01
457.444	5977.85
457.65	5867.26
457.856	6014.71
458.062	5895.93
458.268	5844.73
458.473	6004.47
458.679	6264.57
458.885	6031.1
459.091	6029.05
459.296	5936.89
459.502	6188.79
459.708	5895.93
459.914	6033.15
460.119	6248.18
460.325	6049.53
460.531	6258.42
460.736	6100.73
460.942	6475.51
461.147	6113.02
461.353	6420.21
461.559	6493.94
461.764	6432.5
461.97	6440.69
462.175	6627.06
462.381	6754.03
462.587	6498.03
462.792	6528.75
462.998	6827.76
463.203	6739.69
463.409	6917.87
463.614	6825.71
463.82	6942.44
464.025	6938.35
464.231	7024.36
464.436	6852.33
464.641	6977.26
464.847	7010.03
465.052	7010.03
465.258	7605.99
465.463	7548.64
465.669	7055.08
465.874	7253.73
466.079	7306.98
466.285	7507.68
466.49	7501.54
466.695	7534.31
466.901	7714.53
467.106	7571.17
467.311	7636.7
467.516	7775.97
467.722	7857.89
467.927	7857.89
468.132	7962.33
468.338	7993.05
468.543	7948
468.748	8025.82
468.953	8273.62
469.158	8378.07
469.364	8304.34
469.569	8357.59
469.774	8287.96
469.979	8754.9
470.184	8924.88
470.389	8615.63
470.594	8638.16
470.8	8621.78
471.005	8865.49
471.21	8632.02
471.415	8937.16
471.62	8689.36
471.825	9223.88
472.03	9180.87
472.235	9160.39
472.44	9187.02
472.645	9473.73
472.85	9418.44
473.055	9756.35
473.26	9481.92
473.465	9938.62
473.67	9606.85
473.875	10167.99
474.08	9850.56
474.285	10389.17
474.49	10124.99
474.695	10268.34
474.899	10337.98
475.104	10614.45
475.309	10393.27
475.514	10725.04
475.719	10579.64
475.924	10477.24
476.128	10905.26
476.333	10974.89
476.538	11099.82
476.743	11126.44
476.948	11017.9
477.152	11075.24
477.357	11355.82
477.562	11294.38
477.767	11404.97
477.971	11400.87
478.176	11531.94
478.381	11620
478.585	11802.27
478.79	11378.34
478.995	12021.41
479.199	12107.42
479.404	11738.79
479.609	11970.21
479.813	12447.38
480.018	12193.44
480.223	12267.16
480.427	12340.89
480.632	12322.46
480.836	12658.32
481.041	12447.38
481.245	12678.8
481.45	12564.12
481.654	13012.62
481.859	12816.02
482.063	12951.18
482.268	13078.16
482.472	13151.88
482.677	13317.77
482.881	13198.99
483.086	13139.6
483.29	13364.87
483.495	13584.01
483.699	13387.4
483.903	13614.73
484.108	13528.71
484.312	13883.01
484.517	13778.56
484.721	13764.23
484.925	13948.54
485.13	13928.06
485.334	13981.31
485.538	13833.86
485.743	13975.17
485.947	14192.25
486.151	13979.26
486.355	14237.31
486.56	14542.46
486.764	14171.77
486.968	14433.91
487.172	14370.43
487.377	14698.1
487.581	14900.85
487.785	14470.78
487.989	14896.75
488.193	14745.2
488.397	14802.55
488.602	15021.68
488.806	14737.01
489.01	15005.3
489.214	15187.57
489.418	14845.55
489.622	15126.13
489.826	14954.1
490.03	15451.75
490.234	15222.38
490.438	15349.36
490.642	15423.08
490.846	15435.37
491.05	15445.61
491.254	15523.43
491.458	15674.98
491.662	15713.89
491.866	15697.51
492.07	15728.23
492.274	15320.68
492.478	15812.2
492.682	15570.54
492.886	16068.19
493.09	15953.51
493.294	15779.43
493.498	16002.66
493.701	16088.67
493.905	16103.01
494.109	16170.59
494.313	16019.04
494.517	16088.67
494.721	16174.69
494.924	16232.03
495.128	16442.97
495.332	16326.24
495.536	16322.14
495.739	16082.53
495.943	16504.41
496.147	16287.32
496.351	16680.53
496.554	16551.51
496.758	16555.61
496.962	16838.23
497.165	16653.91
497.369	16967.25
497.573	17090.13
497.776	16875.09
497.98	17026.64
498.184	17000.02
498.387	17364.56
498.591	17073.74
498.794	16846.42
498.998	17049.17
499.202	17133.14
499.405	17198.67
499.609	17380.94
499.812	17579.59
500.016	17372.75
500.219	17450.57
500.423	17647.18
500.626	17604.17
500.83	17630.79
501.033	17649.22
501.237	17649.22
501.44	17802.82
501.643	17915.46
501.847	17608.26
502.05	17784.39
502.254	17737.29
502.457	17952.32
502.66	17540.68
502.864	17829.45
503.067	18085.44
503.271	17966.66
503.474	18124.35
503.677	18308.67
503.88	17731.14
504.084	18185.79
504.287	18175.55
504.49	18394.68
504.694	18376.25
504.897	18316.86
505.1	18294.33
505.303	18714.17
505.507	18572.86
505.71	18773.56
505.913	18585.15
506.116	18720.31
506.319	18892.34
506.522	18769.46
506.726	19000.88
506.929	18820.66
507.132	18966.07
507.335	18753.08
507.538	18961.97
507.741	19131.95
507.944	19121.71
508.147	19215.92
508.35	19318.32
508.553	19390
508.756	19240.5
508.959	19566.12
509.163	19353.13
509.366	19738.15
509.569	19451.44
509.771	19680.81
509.974	19748.39
510.177	19756.58
510.38	19932.71
510.583	19932.71
510.786	19803.69
510.989	19858.98
511.192	20123.17
511.395	20190.75
511.598	20024.87
511.801	20407.84
512.004	20094.5
512.206	20321.82
512.409	20731.42
512.612	20538.91
512.815	20516.38
513.018	20389.41
513.22	20583.96
513.423	20805.14
513.626	20956.69
513.829	20799
514.032	20803.1
514.234	21261.84
514.437	20831.77
514.64	20749.85
514.842	21186.07
515.045	21222.93
515.248	20958.74
515.45	21536.27
515.653	20911.64
515.856	21685.77
516.058	21671.43
516.261	21368.34
516.464	21362.19
516.666	21812.74
516.869	21882.38
517.071	21898.76
517.274	21865.99
517.477	21939.72
517.679	21728.78
517.882	22255.11
518.084	21837.32
518.287	22490.62
518.489	22189.57
518.692	22009.35
518.894	22582.78
519.097	22384.13
519.299	22412.8
519.501	22570.49
519.704	22472.19
519.906	22810.11
520.109	22255.11
520.311	23100.92
520.514	22400.51
520.716	22849.02
520.918	22713.85
521.121	22939.13
521.323	22965.75
521.525	23598.57
521.728	23084.53
521.93	23193.08
522.132	23102.96
522.335	23414.26
522.537	23191.03
522.739	23539.18
522.941	23610.86
523.144	23473.65
523.346	23608.81
523.548	23688.68
523.75	23528.94
523.952	23647.72
524.155	23627.24
524.357	23598.57
524.559	23789.03
524.761	24172
524.963	24241.64
525.165	24069.61
525.368	24290.79
525.57	24149.48
525.772	24112.61
525.974	24217.06
526.176	24139.24
526.378	24442.34
526.58	24194.53
526.782	24458.72
526.984	24286.69
527.186	24757.72
527.388	24411.62
527.59	24389.09
527.792	24188.39
527.994	25255.38
528.196	24366.56
528.398	24837.59
528.6	24743.39
528.802	25032.15
529.004	24694.24
529.206	24630.75
529.408	24831.45
529.609	25118.17
529.811	24853.98
530.013	25204.18
530.215	25005.53
530.417	25015.77
530.619	25236.95
530.821	25140.69
531.022	25239
531.224	25220.56
531.426	24731.1
531.628	25488.85
531.829	25431.51
532.031	25239
532.233	25613.77
532.435	25771.47
532.636	25933.26
532.838	25726.41
533.04	25365.97
533.241	25984.46
533.443	25730.51
533.645	25421.27
533.846	25646.54
534.048	26035.66
534.25	26164.68
534.451	25920.97
534.653	26109.38
534.855	25699.79
535.056	26392
535.258	26314.18
535.459	26408.39
535.661	26156.49
535.862	26492.35
536.064	26435.01
536.265	26695.1
536.467	26308.04
536.668	26537.41
536.87	26713.53
537.071	26498.5
537.273	26226.12
537.474	26541.5
537.676	26750.4
537.877	26736.06
538.078	26521.02
538.28	26293.7
538.481	27088.31
538.683	27053.5
538.884	27458.99
539.085	26809.79
539.287	27041.21
539.488	26901.95
539.689	27231.67
539.891	27125.18
540.092	27045.3
540.293	27565.49
540.495	27086.26
540.696	28018.09
540.897	27491.76
541.098	28087.72
541.3	27905.45
541.501	27487.67
541.702	27880.88
541.903	28247.46
542.104	27649.46
542.306	27925.93
542.507	27700.65
542.708	27901.36
542.909	28192.17
543.11	27997.61
543.311	28214.69
543.512	27700.65
543.713	28267.94
543.915	28618.14
544.116	28784.03
544.317	28368.29
544.518	28442.02
544.719	28712.35
544.92	28810.65
545.121	28876.19
545.322	28634.53
545.523	28974.49
545.724	28796.32
545.925	29070.75
546.126	29113.75
546.327	29126.04
546.528	29089.18
546.729	28966.3
546.929	29279.64
547.13	28816.8
547.331	29218.2
547.532	29242.78
547.733	29826.45
547.934	29246.87
548.135	30006.67
548.336	29791.63
548.536	30207.37
548.737	29943.18
548.938	29762.96
549.139	29797.77
549.34	30367.11
549.54	29765.01
549.741	29662.61
549.942	30410.12
550.143	29908.36
550.343	30279.05
550.544	30561.67
550.745	30702.98
550.945	30571.91
551.146	30840.19
551.347	30410.12
551.547	30864.77
551.748	30621.06
551.949	30987.64
552.149	30993.79
552.35	30903.68
552.551	30907.77
552.751	31051.13
552.952	31315.32
553.152	31655.28
553.353	31698.29
553.553	31948.14
553.754	31509.88
553.954	31477.11
554.155	31827.31
554.356	31638.9
554.556	31542.64
554.756	31882.61
554.957	31683.95
555.157	31997.29
555.358	32073.07
555.558	31968.62
555.759	32021.87
555.959	32062.83
556.159	32243.05
556.36	32433.51
556.56	32200.04
556.761	32437.61
556.961	32638.31
557.161	32988.51
557.362	33226.07
557.562	32900.45
557.762	33252.7
557.963	32867.68
558.163	33441.11
558.363	33197.4
558.563	32984.41
558.764	32955.74
558.964	33473.88
559.164	33561.94
559.364	33670.48
559.565	33738.07
559.765	33523.03
559.965	33619.28
560.165	33563.99
560.365	34233.67
560.565	33719.63
560.766	34741.57
560.966	34506.05
561.166	34266.44
561.366	34479.43
561.566	34465.1
561.766	34481.48
561.966	34485.58
562.166	34043.21
562.366	34309.45
562.566	34450.76
562.766	34508.1
562.966	34483.53
563.166	34729.28
563.366	35163.45
563.566	34792.77
563.766	34944.32
563.966	35673.4
564.166	35388.73
564.366	35589.43
564.566	35462.46
564.766	35984.69
564.966	35804.47
565.166	35370.3
565.366	35599.67
565.565	35669.3
565.765	35890.48
565.965	36042.03
566.165	36021.55
566.365	36171.05
566.565	35820.85
566.764	35988.78
566.964	36054.32
567.164	35923.25
567.364	35917.11
567.564	36160.81
567.763	35857.71
567.963	36781.35
568.163	35841.33
568.362	36107.57
568.562	36793.64
568.762	36521.26
568.961	36764.96
569.161	36287.79
569.361	36551.98
569.56	37319.96
569.76	36891.94
569.96	37319.96
570.159	37141.79
570.359	37041.44
570.558	37612.82
570.758	36996.38
570.958	36832.55
571.157	37453.08
571.357	36648.23
571.556	37174.56
571.756	37422.36
571.955	37362.97
572.155	37483.8
572.354	37512.47
572.554	37752.09
572.753	37182.75
572.953	37369.12
573.152	37086.5
573.351	37381.4
573.551	37518.62
573.75	37074.21
573.95	37668.12
574.149	37801.24
574.348	37326.11
574.548	37168.41
574.747	37618.97
574.946	37631.26
575.146	37756.18
575.345	37844.24
575.544	37446.94
575.744	37156.13
575.943	38100.24
576.142	37559.58
576.342	38137.1
576.541	38071.57
576.74	37393.69
576.939	38272.27
577.138	37879.06
577.338	38302.99
577.537	37920.02
577.736	37946.64
577.935	37922.07
578.134	38194.45
578.333	38196.49
578.533	38325.52
578.732	38581.51
578.931	37784.85
579.13	37973.27
579.329	38315.28
579.528	37666.07
579.727	38069.52
579.926	38454.54
580.125	37905.68
580.324	38393.1
580.523	38106.38
580.722	37940.5
580.921	38124.82
581.12	38253.84
581.319	38030.61
581.518	38636.81
581.717	37948.69
581.916	38153.49
582.115	38450.44
582.314	38485.26
582.513	38389
582.712	37489.95
582.911	38094.1
583.109	37936.4
583.308	38147.34
583.507	37920.02
583.706	38090
583.905	38124.82
584.104	38620.42
584.302	37850.39
584.501	38282.51
584.7	37557.53
584.899	37635.35
585.098	38120.72
585.296	37940.5
585.495	38339.85
585.694	38063.38
585.892	37997.84
586.091	38296.84
586.29	37829.91
586.488	38407.44
586.687	37602.58
586.886	38122.77
587.084	37995.79
587.283	38421.77
587.482	37963.03
587.68	38262.03
587.879	38067.47
588.077	37764.37
588.276	37754.13
588.475	38087.95
588.673	38257.93
588.872	38231.31
589.07	37981.46
589.269	38247.69
589.467	38319.37
589.666	38235.41
589.864	38587.66
590.063	38788.36
590.261	38329.61
590.46	38098.19
590.658	38046.99
590.857	38145.3
591.055	38335.76
591.253	38257.93
591.452	38642.95
591.65	38470.92
591.848	38454.54
592.047	38173.97
592.245	38292.75
592.444	38814.98
592.642	38823.17
592.84	38800.65
593.038	38601.99
593.237	38454.54
593.435	38481.16
593.633	38415.63
593.832	38173.97
594.03	38288.65
594.228	38321.42
594.426	38679.82
594.624	38487.31
594.823	38931.72
595.021	38733.06
595.219	38669.58
595.417	38661.38
595.615	39052.55
595.813	38411.53
596.012	38796.55
596.21	38309.13
596.408	38755.59
596.606	38929.67
596.804	38769.93
597.002	38688.01
597.2	39392.51
597.398	38907.14
597.596	38538.51
597.794	38921.48
597.992	39017.73
598.19	38702.34
598.388	39793.91
598.586	39036.16
598.784	39343.36
598.982	39089.41
599.18	39044.35
599.378	39132.42
599.576	39443.71
599.774	38984.96
599.972	39367.93
600.17	39359.74
600.368	39412.99
600.565	39621.88
600.763	39701.75
600.961	39341.31
601.159	39587.07
601.357	39519.48
601.555	39939.32
601.752	39802.1
601.95	39728.38
602.148	39798.01
602.346	40197.36
602.544	39363.84
602.741	39691.51
602.939	39779.57
603.137	40107.25
603.334	39623.93
603.532	40279.28
603.73	40021.23
603.927	40250.61
604.125	40219.89
604.323	40168.69
604.52	40754.41
604.718	40054
604.916	40518.89
605.113	40195.31
605.311	40490.22
605.508	40844.52
605.706	40649.96
605.904	40541.42
606.101	40555.75
606.299	40662.25
606.496	40754.41
606.694	40774.89
606.891	40719.59
607.089	40547.56
607.286	40865
607.484	40754.41
607.681	40770.79
607.879	40889.57
608.076	41211.1
608.273	40885.48
608.471	41067.75
608.668	41366.75
608.866	40797.41
609.063	41301.22
609.26	41315.55
609.458	41184.48
609.655	41434.33
609.852	41458.91
610.05	41669.85
610.247	41264.35
610.444	41393.37
610.642	41266.4
610.839	41682.14
611.036	41741.53
611.233	41886.93
611.431	42216.66
611.628	41637.08
611.825	42048.72
612.022	42212.56
612.22	41948.37
612.417	42183.89
612.614	42165.46
612.811	42120.4
613.008	42120.4
613.205	42224.85
613.402	42396.88
613.6	42722.51
613.797	42613.96
613.994	42908.87
614.191	42640.59
614.388	42255.57
614.585	42853.58
614.782	42642.63
614.979	42673.35
615.176	42593.48
615.373	42765.51
615.57	42849.48
615.767	42495.18
615.964	43226.31
616.161	42628.3
616.358	43095.24
616.555	42962.12
616.752	43572.41
616.949	43052.23
617.146	43535.55
617.343	43297.98
617.539	43250.88
617.736	42945.73
617.933	43410.62
618.13	43140.29
618.327	43936.95
618.524	43633.85
618.721	43852.98
618.917	43730.11
619.114	44446.9
619.311	43930.81
619.508	44321.97
619.704	44160.18
619.901	43816.12
620.098	43936.95
620.295	44281.01
620.491	43910.33
620.688	44311.73
620.885	43814.07
621.081	44356.78
621.278	44080.31
621.475	44188.85
621.671	44706.99
621.868	44481.71
622.065	44373.17
622.261	44348.59
622.458	44031.16
622.655	44436.66
622.851	44704.94
623.048	44340.4
623.244	44174.52
623.441	45104.29
623.637	44764.33
623.834	44973.22
624.03	44663.98
624.227	45264.03
624.423	44803.24
624.62	44481.71
624.816	45065.38
625.013	44389.55
625.209	45044.9
625.406	45589.66
625.602	44913.83
625.798	45012.13
625.995	45450.4
626.191	44674.22
626.388	45571.23
626.584	45141.16
626.78	45808.79
626.977	44891.3
627.173	45038.76
627.369	45997.21
627.566	45560.99
627.762	45218.98
627.958	45755.55
628.154	45618.33
628.351	45325.47
628.547	45487.26
628.743	45348
628.939	44874.92
629.136	45937.82
629.332	45886.62
629.528	45880.47
629.724	45225.12
629.92	45741.21
630.116	45507.74
630.313	45626.53
630.509	45647
630.705	45026.47
630.901	45548.7
631.097	45968.54
631.293	45886.62
631.489	45735.07
631.685	45227.17
631.881	45339.81
632.077	45460.64
632.273	46150.81
632.469	45870.23
632.665	45956.25
632.861	45991.06
633.057	45921.43
633.253	44948.65
633.449	45247.65
633.645	45722.78
633.841	45687.96
634.037	45780.12
634.233	46396.56
634.429	45794.46
634.625	46414.99
634.821	45745.31
635.017	45706.4
635.212	45833.37
635.408	45728.92
635.604	45968.54
635.8	45718.68
635.996	45622.43
636.191	45710.49
636.387	45814.94
636.583	45304.99
636.779	45511.84
636.975	46115.99
637.17	45724.83
637.366	45853.85
637.562	45604
637.757	45491.36
637.953	45382.82
638.149	45554.85
638.345	45677.72
638.54	45911.19
638.736	46079.13
638.931	45409.44
639.127	45550.75
639.323	45524.13
639.518	45677.72
639.714	45530.27
639.909	45210.79
640.105	45984.92
640.301	45712.54
640.496	45831.32
640.692	45077.67
640.887	45653.15
641.083	45626.53
641.278	45481.12
641.474	45726.88
641.669	45083.81
641.865	45565.09
642.06	45317.28
642.256	45474.98
642.451	44930.22
642.646	45800.6
642.842	45515.93
643.037	45169.83
643.233	45235.36
643.428	45192.36
643.623	45581.47
643.819	44778.67
644.014	44993.7
644.209	44836.01
644.405	44672.17
644.6	44311.73
644.795	44983.46
644.99	44461.23
645.186	44299.44
645.381	44797.1
645.576	44496.05
645.771	44911.78
645.967	44287.15
646.162	45010.09
646.357	44592.3
646.552	44733.61
646.747	44774.57
646.943	44891.3
647.138	44496.05
647.333	44229.81
647.528	44358.83
647.723	44487.85
647.918	43973.81
648.113	44752.04
648.308	45016.23
648.504	44170.42
648.699	44668.08
648.894	44510.38
649.089	44727.47
649.284	44407.98
649.479	44706.99
649.674	44188.85
649.869	44522.67
650.064	44266.67
650.259	44084.4
650.454	44098.74
650.649	44418.22
650.844	44373.17
651.038	43812.02
651.233	43982.01
651.428	44266.67
651.623	44049.59
651.818	44025.01
652.013	43799.74
652.208	44004.53
652.403	43664.57
652.597	43805.88
652.792	43678.91
652.987	43744.44
653.182	43789.5
653.377	43689.15
653.571	43199.68
653.766	43746.49
653.961	43992.25
654.156	43947.19
654.35	43416.77
654.545	43166.91
654.74	43836.6
654.935	43556.03
655.129	43367.62
655.324	43158.72
655.519	43857.08
655.713	43029.7
655.908	43789.5
656.102	43572.41
656.297	43447.49
656.492	43619.52
656.686	43232.45
656.881	43076.8
657.075	43629.76
657.27	43013.32
657.464	43197.63
657.659	43343.04
657.854	42921.16
658.048	42611.92
658.243	42988.74
658.437	43033.8
658.631	43005.13
658.826	42831.05
659.02	43164.87
659.215	42607.82
659.409	42878.15
659.604	42855.62
659.798	42980.55
659.992	42656.97
660.187	42536.14
660.381	42945.73
660.576	42763.46
660.77	42790.09
660.964	42302.67
661.159	42493.13
661.353	43132.1
661.547	42319.06
661.742	42443.98
661.936	43048.13
662.13	42452.17
662.324	42577.1
662.519	42507.47
662.713	42450.13
662.907	42966.21
663.101	42818.76
663.295	42421.45
663.49	42474.7
663.684	43087.04
663.878	42443.98
664.072	42067.16
664.266	42896.58
664.46	42460.37
664.654	42386.64
664.849	42407.12
665.043	42263.76
665.237	42480.85
665.431	42263.76
665.625	41931.99
665.819	41950.42
666.013	42284.24
666.207	42300.62
666.401	42018
666.595	42165.46
666.789	41940.18
666.983	42376.4
667.177	41651.42
667.371	41983.19
667.565	42005.72
667.759	42161.36
667.953	41850.07
668.147	41196.77
668.34	41592.03
668.534	41665.75
668.728	41940.18
668.922	41559.26
669.116	41383.13
669.31	41434.33
669.504	41260.26
669.697	41856.21
669.891	41438.43
670.085	41700.57
670.279	41669.85
670.473	41379.04
670.666	41780.44
670.86	41802.97
671.054	41247.97
671.248	40946.92
671.441	41458.91
671.635	41757.91
671.829	41639.13
672.022	41487.58
672.216	41630.94
672.41	41813.21
672.603	41227.49
672.797	41245.92
672.99	41450.72
673.184	40811.75
673.378	41710.81
673.571	41118.95
673.765	41231.58
673.958	41950.42
674.152	41434.33
674.345	41520.35
674.539	41301.22
674.733	41010.4
674.926	41096.42
675.12	41059.55
675.313	41366.75
675.506	41020.64
675.7	41434.33
675.893	40611.05
676.087	41026.79
676.28	41016.55
676.474	40774.89
676.667	41454.81
676.86	40412.4
677.054	40961.25
677.247	40590.57
677.441	41196.77
677.634	40836.33
677.827	40838.37
678.02	40420.59
678.214	40477.93
678.407	40428.78
678.6	40969.44
678.794	40725.74
678.987	40748.26
679.18	40625.39
679.373	41114.85
679.567	40701.16
679.76	40758.5
679.953	40738.02
680.146	40766.7
680.339	40580.33
680.533	40762.6
680.726	40660.2
680.919	40723.69
681.112	40563.95
681.305	40365.29
681.498	40797.41
681.691	40658.15
681.884	40609
682.077	40445.16
682.271	40821.99
682.464	40367.34
682.657	40733.93
682.85	40467.69
683.043	40004.85
683.236	40672.49
683.429	40252.66
683.622	39812.34
683.815	40285.42
684.008	40123.63
684.201	40271.09
684.393	40062.19
684.586	40541.42
684.779	40041.71
684.972	39828.73
685.165	40203.5
685.358	39615.74
685.551	40396.01
685.744	40045.81
685.937	40000.75
686.129	39970.04
686.322	39834.87
686.515	39947.51
686.708	39967.99
686.901	39947.51
687.093	39847.16
687.286	39691.51
687.479	40342.77
687.672	39654.65
687.864	40340.72
688.057	39513.34
688.25	40275.18
688.442	39673.08
688.635	39884.02
688.828	39636.22
689.02	39863.54
689.213	39464.19
689.406	39845.11
689.598	39800.05
689.791	39709.94
689.984	39576.83
690.176	40404.2
690.369	39490.81
690.561	39660.79
690.754	39412.99
690.946	39816.44
691.139	40041.71
691.331	39580.92
691.524	39658.74
691.716	40117.49
691.909	39658.74
692.101	39617.78
692.294	39662.84
692.486	39750.9
692.679	39578.87
692.871	39527.67
693.063	39503.1
693.256	39818.49
693.448	39433.47
693.641	39429.37
693.833	39505.15
694.025	39152.9
694.218	39275.77
694.41	39578.87
694.602	38923.52
694.795	38933.76
694.987	39011.59
695.179	39378.17
695.372	38896.9
695.564	39222.53
695.756	39093.5
695.948	39507.19
696.14	38718.73
696.333	39128.32
696.525	38477.07
696.717	38731.01
696.909	39509.24
697.101	38653.19
697.294	38958.34
697.486	39148.8
697.678	39247.1
697.87	38860.04
698.062	39177.47
698.254	39034.11
698.446	38841.6
698.638	38614.28
698.83	39578.87
699.022	38782.21
699.215	39206.14
699.407	38802.69
699.599	39032.07
699.791	39109.89
699.983	39011.59
700.175	38946.05
700.367	38753.54
700.558	38892.8
700.75	39222.53
700.942	38493.45
701.134	38749.45
701.326	38905.09
701.518	39200
701.71	38726.92
701.902	38509.83
702.094	38819.08
702.286	38624.52
702.477	38960.39
702.669	38561.03
702.861	38757.64
703.053	38466.83
703.245	38229.26
703.436	38012.18
703.628	38399.24
703.82	38524.17
704.012	38489.35
704.203	38317.32
704.395	38315.28
704.587	38587.66
704.779	38106.38
704.97	38524.17
705.162	38053.14
705.354	38356.24
705.545	38040.85
705.737	38206.73
705.929	38694.15
706.12	38165.77
706.312	38006.03
706.503	38561.03
706.695	38161.68
706.887	38417.68
707.078	37676.31
707.27	38292.75
707.461	37930.26
707.653	38495.5
707.844	37459.23
708.036	38335.76
708.227	37911.83
708.419	38046.99
708.61	38325.52
708.802	37563.67
708.993	38354.19
709.185	37416.22
709.376	37879.06
709.567	38233.36
709.759	37891.35
709.95	37858.58
710.141	37336.35
710.333	37747.99
710.524	37917.97
710.716	37686.55
710.907	37475.61
711.098	37952.79
711.289	37457.18
711.481	37326.11
711.672	37780.76
711.863	37758.23
712.055	37387.55
712.246	37471.51
712.437	36953.38
712.628	37348.64
712.82	37254.43
713.011	37557.53
713.202	37149.98
713.393	36818.21
713.584	37309.72
713.775	37166.37
713.967	37477.66
714.158	37018.91
714.349	37387.55
714.54	37496.09
714.731	36748.58
714.922	37371.16
715.113	37190.94
715.304	36500.78
715.495	36650.28
715.686	36463.91
715.877	36748.58
716.068	36826.4
716.259	36597.03
716.45	36293.93
716.641	36191.53
716.832	36181.29
717.023	36924.71
717.214	36185.39
717.405	36582.7
717.596	35978.54
717.787	36545.83
717.978	36158.77
718.169	35775.8
718.36	35943.73
718.55	36056.37
718.741	36386.09
718.932	35943.73
719.123	35505.46
719.314	35902.77
719.505	35706.16
719.695	36064.56
719.886	35351.87
720.077	35530.04
720.268	35757.36
720.458	35687.73
720.649	35237.18
720.84	35269.95
721.031	35233.08
721.221	35284.28
721.412	35284.28
721.603	35491.13
721.793	34727.24
721.984	35409.21
722.175	34823.49
722.365	35142.97
722.556	34923.84
722.746	34882.88
722.937	35253.56
723.128	35145.02
723.318	34911.55
723.509	34977.09
723.699	34800.96
723.89	35452.22
724.08	35159.36
724.271	34286.92
724.461	34856.26
724.652	34827.59
724.842	34526.53
725.033	34379.08
725.223	34868.55
725.414	35011.9
725.604	34721.09
725.794	34463.05
725.985	34862.4
726.175	34999.62
726.366	34866.5
726.556	35089.73
726.746	34399.56
726.937	34757.95
727.127	34573.64
727.317	34491.72
727.508	34532.68
727.698	34700.61
727.888	34393.42
728.079	34311.5
728.269	34268.49
728.459	34106.7
728.649	34733.38
728.84	34276.68
729.03	34524.49
729.22	34364.74
729.41	34440.52
729.6	34297.16
729.791	34667.84
729.981	34168.14
730.171	34481.48
730.361	34145.61
730.551	34442.57
730.741	34207.05
730.931	34497.86
731.121	34706.76
731.311	34217.29
731.502	34358.6
731.692	33897.81
731.882	34239.82
732.072	34305.35
732.262	34149.71
732.452	33695.06
732.642	34137.42
732.832	33824.08
733.022	33705.3
733.212	33926.48
733.402	34196.81
733.591	34123.08
733.781	34071.89
733.971	33932.62
734.161	33602.9
734.351	33762.64
734.541	34331.98
734.731	33912.14
734.921	33693.01
735.111	33760.59
735.3	33520.98
735.49	33590.61
735.68	33897.81
735.87	33963.34
736.06	33549.65
736.249	33107.29
736.439	33434.97
736.629	33172.83
736.819	33463.64
737.008	33254.75
737.198	32935.26
737.388	32888.16
737.577	32908.64
737.767	33176.92
737.957	33203.55
738.146	32841.06
738.336	32922.97
738.526	32781.67
738.715	32959.84
738.905	32720.23
739.094	32980.32
739.284	32804.19
739.474	32986.46
739.663	32894.3
739.853	32830.82
740.042	32626.02
740.232	32990.56
740.421	32691.55
740.611	32798.05
740.8	32970.08
740.99	32691.55
741.179	32843.1
741.369	32767.33
741.558	32707.94
741.748	32593.25
741.937	32288.1
742.126	32062.83
742.316	32503.14
742.505	32677.22
742.695	32421.22
742.884	32691.55
743.073	32353.64
743.263	32593.25
743.452	32007.53
743.641	32310.63
743.831	32202.09
744.02	32406.89
744.209	32085.36
744.398	31739.25
744.588	31958.38
744.777	32099.69
744.966	31917.42
745.155	31653.23
745.345	31954.29
745.534	31989.1
745.723	31849.84
745.912	31753.58
746.101	31702.39
746.29	31368.57
746.48	31526.26
746.669	31534.45
746.858	31464.82
747.047	31716.72
747.236	31245.69
747.425	31479.16
747.614	31544.69
747.803	31331.7
747.992	31391.09
748.181	31489.4
748.37	31155.58
748.559	30842.24
748.748	31008.12
748.937	31249.78
749.126	30625.15
749.315	31264.12
749.504	31065.47
749.693	30932.35
749.882	31305.08
750.071	30860.67
750.26	30909.82
750.449	30965.12
750.638	30283.14
750.826	30909.82
751.015	30612.87
751.204	30674.31
751.393	30608.77
751.582	30528.9
751.771	30700.93
751.959	30965.12
752.148	31233.4
752.337	31016.32
752.526	30674.31
752.714	30569.86
752.903	30592.39
753.092	30551.43
753.281	30377.35
753.469	30246.28
753.658	30420.36
753.847	30098.83
754.035	30156.17
754.224	30416.26
754.413	30203.27
754.601	30864.77
754.79	29805.97
754.979	30084.49
755.167	30109.07
755.356	30121.35
755.544	29906.32
755.733	30260.62
755.921	30078.35
756.11	29922.7
756.298	29558.16
756.487	29791.63
756.675	29578.64
756.864	29570.45
757.052	29361.56
757.241	29576.59
757.429	29633.94
757.618	29496.72
757.806	29263.25
757.995	29359.51
758.183	29058.46
758.371	29156.76
758.56	29050.27
758.748	28988.83
758.937	29152.66
759.125	29609.36
759.313	28652.96
759.502	28929.44
759.69	29123.99
759.878	29185.43
760.066	29111.71
760.255	28851.61
760.443	28994.97
760.631	28655.01
760.819	28751.26
761.008	28999.07
761.196	29042.07
761.384	29271.45
761.572	28786.08
761.761	29269.4
761.949	28861.85
762.137	28966.3
762.325	29011.35
762.513	28841.37
762.701	28710.3
762.889	28728.73
763.077	28603.81
763.266	28587.43
763.454	28716.45
763.642	28214.69
763.83	28601.76
764.018	28775.84
764.206	28726.69
764.394	28356
764.582	28431.78
764.77	28419.49
764.958	28294.57
765.146	28280.23
765.334	28446.12
765.522	28552.61
765.71	27694.51
765.898	28335.52
766.085	27927.98
766.273	28165.54
766.461	27960.75
766.649	27649.46
766.837	27721.13
767.025	27844.01
767.213	27952.55
767.401	27846.06
767.588	27958.7
767.776	27884.97
767.964	27557.3
768.152	28013.99
768.339	27528.63
768.527	27381.17
768.715	27524.53
768.903	27362.74
769.09	27522.48
769.278	27141.56
769.466	27471.28
769.654	27182.52
769.841	26910.14
770.029	27000.25
770.217	27229.62
770.404	26887.61
770.592	27225.53
770.779	27133.37
770.967	26983.87
771.155	27311.54
771.342	26889.66
771.53	26834.36
771.717	26891.71
771.905	27020.73
772.092	27076.02
772.28	26924.47
772.467	26795.45
772.655	26637.76
772.842	26871.23
773.03	26652.09
773.217	26828.22
773.405	26445.25
773.592	26629.57
773.78	26578.37
773.967	26408.39
774.154	26703.29
774.342	26883.52
774.529	26535.36
774.717	26666.43
774.904	26783.16
775.091	26322.37
775.279	26590.66
775.466	26176.97
775.653	26623.42
775.841	26467.78
776.028	26422.72
776.215	26256.84
776.402	26246.6
776.59	26174.92
776.777	26176.97
776.964	26025.42
777.151	26224.07
777.338	26019.27
777.526	25841.1
777.713	26168.77
777.9	25877.96
778.087	25251.28
778.274	25705.93
778.461	25433.55
778.649	25540.05
778.836	25437.65
779.023	25800.14
779.21	25343.44
779.397	25318.87
779.584	25347.54
779.771	25300.44
779.958	24911.32
780.145	25066.97
780.332	24890.84
780.519	25241.04
780.706	25216.47
780.893	24595.93
781.08	24946.14
781.267	24911.32
781.454	25105.88
781.641	24579.55
781.828	24602.08
782.015	24440.29
782.202	24403.42
782.388	24618.46
782.575	24483.3
782.762	24593.89
782.949	24507.87
783.136	24434.14
783.323	24366.56
783.509	24376.8
783.696	24534.49
783.883	24307.17
784.07	24202.72
784.257	24083.94
784.443	24278.5
784.63	24266.21
784.817	24051.17
785.004	23948.78
785.19	23774.7
785.377	23938.54
785.564	24012.26
785.75	23750.12
785.937	23807.47
786.124	23916.01
786.31	23739.88
786.497	23696.88
786.683	23975.4
786.87	23631.34
787.057	23870.95
787.243	23320.05
787.43	23330.29
787.616	23064.05
787.803	23502.32
787.989	23340.53
788.176	23244.27
788.362	23014.9
788.549	23053.81
788.735	23184.88
788.922	23348.72
789.108	23203.32
789.295	22738.43
789.481	22750.71
789.668	22799.87
789.854	22963.7
790.04	22449.66
790.227	22707.71
790.413	22504.96
790.599	22742.52
790.786	22652.41
790.972	22685.18
791.158	22732.28
791.345	22621.69
791.531	22572.54
791.717	22877.69
791.904	22427.14
792.09	22554.11
792.276	22093.32
792.462	22312.45
792.649	22007.3
792.835	22607.36
793.021	22115.84
793.207	22101.51
793.393	22332.93
793.58	22509.05
793.766	22863.35
793.952	22593.02
794.138	22232.58
794.324	22705.66
794.51	22523.39
794.696	22728.19
794.882	22394.37
795.069	23090.68
795.255	22670.84
795.441	23066.1
795.627	22840.82
795.813	22898.17
795.999	23031.29
796.185	22869.5
796.371	22892.02
796.557	22818.3
796.743	22998.52
796.929	22982.13
797.115	23008.76
797.3	23217.65
797.486	23150.07
797.672	23010.81
797.858	23420.4
798.044	23143.92
798.23	23291.38
798.416	23186.93
798.602	23107.06
798.788	22844.92
798.973	23262.71
799.159	23143.92
799.345	23260.66
799.531	22830.58
799.717	22908.41
799.902	22849.02
800.088	22599.16
800.274	22767.1
800.46	23117.3
800.645	22904.31
800.831	23127.54
801.017	23174.64
801.202	22853.11
801.388	22932.98
801.574	22896.12
801.759	22689.28
801.945	22523.39
802.131	22742.52
802.316	22261.25
802.502	22431.23
802.687	22341.12
802.873	22289.92
803.058	22228.48
803.244	22277.63
803.43	21888.52
803.615	22095.36
803.801	22126.08
803.986	22087.17
804.172	22312.45
804.357	22109.7
804.543	21837.32
804.728	21550.6
804.913	21779.98
805.099	21534.22
805.284	22052.36
805.47	21880.33
805.655	22056.45
805.84	21888.52
806.026	22005.25
806.211	21581.32
806.397	21812.74
806.582	21693.96
806.767	21577.23
806.953	21945.86
807.138	22091.27
807.323	21747.21
807.508	21587.47
807.694	22228.48
807.879	21681.67
808.064	22021.64
808.249	22058.5
808.435	22044.16
808.62	21917.19
808.805	21923.33
808.99	22494.72
809.175	22283.78
809.361	22072.84
809.546	21988.87
809.731	22117.89
809.916	21798.41
810.101	22099.46
810.286	22003.21
810.471	21806.6
810.656	21650.95
810.841	21896.71
811.026	21706.25
811.211	21859.85
811.396	21390.86
811.581	21708.3
811.766	21661.19
811.951	21243.41
812.136	21196.31
812.321	21620.24
812.506	21575.18
812.691	21294.61
812.876	21446.16
813.061	21218.83
813.246	21335.57
813.431	20903.45
813.616	21462.54
813.801	21138.96
813.986	20944.41
814.17	20663.83
814.355	20647.45
814.54	20688.41
814.725	20309.54
814.91	20485.66
815.094	20387.36
815.279	19990.05
815.464	19844.65
815.649	19897.89
815.833	19996.2
816.018	19953.19
816.203	19641.9
816.388	19322.41
816.572	19584.55
816.757	19015.22
816.942	19232.3
817.126	19316.27
817.311	19107.38
817.496	19154.48
817.68	18955.83
817.865	19273.26
818.049	18923.06
818.234	19127.86
818.419	19285.55
818.603	19146.29
818.788	19179.06
818.972	19072.56
819.157	19086.9
819.341	18863.67
819.526	19119.67
819.71	18988.6
819.895	19115.57
820.079	19105.33
820.264	18863.67
820.448	19111.47
820.633	18878.01
820.817	18826.81
821.001	19027.51
821.186	19121.71
821.37	18845.24
821.554	18994.74
821.739	18964.02
821.923	19025.46
822.108	18925.11
822.292	18873.91
822.476	18816.57
822.66	18622.01
822.845	18662.97
823.029	18542.14
823.213	18460.22
823.398	18503.23
823.582	17970.76
823.766	18640.44
823.95	18366.01
824.134	18157.12
824.319	18230.85
824.503	18097.73
824.687	18155.07
824.871	17964.61
825.055	18196.03
825.239	17765.96
825.423	17942.08
825.608	17741.38
825.792	18064.96
825.976	17638.98
826.16	17712.71
826.344	17739.33
826.528	17315.41
826.712	17315.41
826.896	17196.62
827.08	17176.14
827.264	17202.77
827.448	17163.86
827.632	16830.04
827.816	16930.39
828	16369.24
828.184	16539.22
828.368	16610.9
828.552	16289.37
828.736	16361.05
828.919	16014.94
829.103	15978.08
829.287	16381.53
829.471	16043.62
829.655	16051.81
829.839	15818.34
830.023	16070.24
830.206	15969.89
830.39	15910.5
830.574	15926.88
830.758	15761
830.941	15611.5
831.125	15740.52
831.309	15474.28
831.493	15615.59
831.676	15703.65
831.86	15677.03
832.044	15896.16
832.227	15582.82
832.411	15783.52
832.595	15746.66
832.778	15660.65
832.962	15660.65
833.146	15916.64
833.329	15646.31
833.513	15513.19
833.696	15767.14
833.88	15781.48
834.064	15720.04
834.247	15656.55
834.431	15201.9
834.614	15560.3
834.798	15490.66
834.981	15326.83
835.165	15277.68
835.348	15339.12
835.532	15130.22
835.715	15193.71
835.898	15052.4
836.082	14943.86
836.265	14796.4
836.449	15099.5
836.632	15056.5
836.815	14890.61
836.999	14913.14
837.182	14726.77
837.365	14925.43
837.549	15068.78
837.732	14945.91
837.915	14632.57
838.099	14474.87
838.282	14485.11
838.465	14550.65
838.648	14462.58
838.832	14227.07
839.015	14466.68
839.198	14118.53
839.381	14442.1
839.565	14083.71
839.748	14044.8
839.931	13870.72
840.114	13995.65
840.297	13911.68
840.48	13719.17
840.663	13620.87
840.847	13342.35
841.03	13522.57
841.213	13631.11
841.396	13258.38
841.579	13383.31
841.762	13168.27
841.945	13416.07
842.128	13252.24
842.311	13084.3
842.494	13053.58
842.677	13248.14
842.86	12924.56
843.043	12844.69
843.226	12992.14
843.409	12893.84
843.592	12701.33
843.775	12709.52
843.958	12611.22
844.141	12514.97
844.323	12527.25
844.506	12498.58
844.689	12787.35
844.872	12496.53
845.055	12609.17
845.238	12615.32
845.42	12521.11
845.603	12820.11
845.786	12506.77
845.969	12461.72
846.152	12766.87
846.334	12785.3
846.517	12449.43
846.7	12617.36
846.883	12609.17
847.065	12670.61
847.248	12682.9
847.431	12529.3
847.613	12406.42
847.796	12713.62
847.979	12416.66
848.161	12623.51
848.344	12299.93
848.526	12705.43
848.709	12596.89
848.892	12242.59
849.074	12367.51
849.257	12134.04
849.439	12344.98
849.622	12166.81
849.804	12240.54
849.987	12203.68
850.169	12154.52
850.352	12072.61
850.534	12250.78
850.717	12064.41
850.899	12148.38
851.082	11949.73
851.264	11861.66
851.446	11910.82
851.629	11779.75
851.811	11806.37
851.994	11771.55
852.176	11894.43
852.358	11882.14
852.541	11460.26
852.723	11542.18
852.905	11548.33
853.088	11642.53
853.27	11290.28
853.452	11271.85
853.635	11237.03
853.817	11232.94
853.999	11163.31
854.181	11126.44
854.363	11175.59
854.546	11081.39
854.728	11032.24
854.91	11007.66
855.092	10747.57
855.274	10872.5
855.457	10895.02
855.639	10786.48
855.821	11126.44
856.003	10835.63
856.185	10708.66
856.367	10759.86
856.549	10679.99
856.731	10731.19
856.913	10514.1
857.095	10632.88
857.277	10454.71
857.459	10796.72
857.641	10686.13
857.823	10686.13
858.005	10471.09
858.187	10559.16
858.369	10448.57
858.551	10421.94
858.733	10438.33
858.915	10657.46
859.097	10722.99
859.279	10442.42
859.461	10467
859.643	10352.31
859.824	10495.67
860.006	10227.39
860.188	10430.13
860.37	10557.11
860.552	10473.14
860.734	10370.74
860.915	10337.98
861.097	10368.7
861.279	10380.98
861.461	10186.43
861.642	10194.62
861.824	10270.39
862.006	10333.88
862.188	10229.43
862.369	10200.76
862.551	10206.91
862.733	10262.2
862.914	10264.25
863.096	10030.78
863.278	10188.47
863.459	10081.98
863.641	10086.08
863.822	9955.01
864.004	10049.21
864.185	10106.56
864.367	9926.33
864.549	9922.24
864.73	9955.01
864.912	9647.81
865.093	9948.86
865.275	9612.99
865.456	9639.62
865.638	9653.95
865.819	9758.4
866.001	9582.28
866.182	9592.51
866.363	9672.39
866.545	9438.92
866.726	9492.16
866.908	9414.34
867.089	9432.77
867.27	9563.84
867.452	9490.12
867.633	9385.67
867.814	9412.29
867.996	9330.37
868.177	9393.86
868.358	9060.04
868.54	9096.91
868.721	9211.59
868.902	9422.53
869.083	9234.12
869.265	9072.33
869.446	8967.88
869.627	9305.8
869.808	8922.83
869.989	9033.42
870.171	8939.21
870.352	8976.08
870.533	8849.1
870.714	8978.12
870.895	8937.16
871.076	9105.1
871.257	8898.25
871.438	8910.54
871.619	8695.5
871.801	8689.36
871.982	8928.97
872.163	8812.24
872.344	8869.58
872.525	8779.47
872.706	8644.31
872.887	8603.35
873.068	8629.97
873.249	8812.24
873.43	8535.76
873.61	8838.86
873.791	8341.21
873.972	8529.62
874.153	8437.46
874.334	8459.99
874.515	8462.04
874.696	8281.81
874.877	8255.19
875.058	8242.9
875.238	8394.45
875.419	8091.35
875.6	7921.37
875.781	8259.29
875.962	8216.28
876.142	8187.61
876.323	8048.35
876.504	8070.87
876.685	7958.24
876.865	7982.81
877.046	7909.08
877.227	8013.53
877.407	7950.04
877.588	7765.73
877.769	8040.15
877.949	7894.75
878.13	7663.33
878.311	7855.84
878.491	7679.71
878.672	7876.32
878.853	7683.81
879.033	7620.32
879.214	7491.3
879.394	7763.68
879.575	7630.56
879.755	7462.63
879.936	7605.99
880.116	7605.99
880.297	7603.94
880.477	7565.03
880.658	7431.91
880.838	7505.63
881.019	7573.22
881.199	7726.82
881.38	7577.31
881.56	7485.16
881.74	7552.74
881.921	7599.84
882.101	7386.85
882.281	7579.36
882.462	7427.81
882.642	7732.96
882.822	7603.94
883.003	7485.16
883.183	7431.91
883.363	7591.65
883.544	7536.35
883.724	7460.58
883.904	7620.32
884.084	7540.45
884.265	7460.58
884.445	7532.26
884.625	7503.59
884.805	7624.42
884.985	7595.75
885.166	7456.48
885.346	7479.01
885.526	7743.2
885.706	7773.92
885.886	7546.59
886.066	7763.68
886.246	7700.19
886.426	7583.46
886.606	7784.16
886.787	7673.57
886.967	7878.37
887.147	7780.06
887.327	7614.18
887.507	7784.16
887.687	7726.82
887.867	7673.57
888.047	7530.21
888.227	7630.56
888.406	7640.8
888.586	7765.73
888.766	7786.21
888.946	7634.66
889.126	7775.97
889.306	7687.9
889.486	7814.88
889.666	7995.1
889.846	7608.03
890.025	7675.62
890.205	7737.06
890.385	7710.43
890.565	7743.2
890.745	7835.36
890.924	7622.37
891.104	7861.98
891.284	7814.88
891.464	7904.99
891.643	7913.18
891.823	7952.09
892.003	7671.52
892.183	7853.79
892.362	7798.49
892.542	7915.23
892.722	7745.25
892.901	7763.68
893.081	8074.97
893.26	8015.58
893.44	7972.57
893.62	8126.17
893.799	7972.57
893.979	7954.14
894.158	8087.26
894.338	7988.96
894.517	8068.83
894.697	7982.81
894.877	8042.2
895.056	8042.2
895.236	8253.14
895.415	8070.87
895.594	8134.36
895.774	8007.39
895.953	8138.46
896.133	8087.26
896.312	8058.59
896.492	8046.3
896.671	7997.15
896.85	8134.36
897.03	8115.93
897.209	8218.33
897.388	8077.02
897.568	8232.66
897.747	8175.32
897.926	8077.02
898.106	8027.87
898.285	8249.05
898.464	8142.55
898.643	8040.15
898.823	8206.04
899.002	8421.08
899.181	8359.64
899.36	8285.91
899.54	8380.12
899.719	8316.63
899.898	8513.24
900.077	8398.55
900.256	8214.23
900.435	8388.31
900.614	8066.78
900.794	8459.99
900.973	8363.73
901.152	8216.28
901.331	8511.19
901.51	8187.61
901.689	8355.54
901.868	8535.76
902.047	8509.14
902.226	8388.31
902.405	8333.01
902.584	8513.24
902.763	8333.01
902.942	8382.17
903.121	8343.25
903.3	8339.16
903.479	8310.49
903.658	8603.35
903.837	8386.26
904.015	8093.4
904.194	8437.46
904.373	8531.67
904.552	8494.8
904.731	8369.88
904.91	8406.74
905.089	8470.23
905.267	8636.11
905.446	8390.36
905.625	8476.37
905.804	8079.07
905.982	8380.12
906.161	8380.12
906.34	8390.36
906.519	8267.48
906.697	8443.6
906.876	8322.77
907.055	8347.35
907.233	8462.04
907.412	8589.01
907.591	8351.45
907.769	8468.18
907.948	8406.74
908.127	8210.14
908.305	8492.76
908.484	8302.29
908.662	8341.21
908.841	8251.1
909.019	8146.65
909.198	8388.31
909.377	8330.97
909.555	8576.72
909.734	8474.32
909.912	8359.64
910.09	8419.03
910.269	8228.57
910.447	8419.03
910.626	8263.38
910.804	8261.34
910.983	8275.67
911.161	8208.09
911.339	8275.67
911.518	8388.31
911.696	8287.96
911.875	8283.86
912.053	8322.77
912.231	8453.84
912.41	8427.22
912.588	8165.08
912.766	8308.44
912.944	8294.1
913.123	8025.82
913.301	8130.27
913.479	8253.14
913.657	8056.54
913.836	8341.21
914.014	8091.35
914.192	8091.35
914.37	7991
914.548	8206.04
914.727	8107.74
914.905	8031.96
915.083	8089.31
915.261	7956.19
915.439	7925.47
915.617	7812.83
915.795	7798.49
915.973	7993.05
916.151	7935.71
916.329	7950.04
916.508	7974.62
916.686	7861.98
916.864	7847.65
917.042	7968.48
917.22	7931.61
917.398	7958.24
917.575	7771.87
917.753	7911.13
917.931	7880.41
918.109	7720.67
918.287	7872.22
918.465	7988.96
918.643	7962.33
918.821	7747.3
918.999	7837.41
919.177	7786.21
919.354	7821.02
919.532	7749.34
919.71	7595.75
919.888	7587.55
920.066	7810.78
920.243	7544.55
920.421	7548.64
920.599	7583.46
920.777	7368.42
920.954	7550.69
921.132	7522.02
921.31	7358.18
921.488	7640.8
921.665	7497.44
921.843	7231.21
922.021	7491.3
922.198	7266.02
922.376	7388.9
922.553	7321.32
922.731	7286.5
922.909	7253.73
923.086	7235.3
923.264	7132.9
923.441	7216.87
923.619	7261.93
923.796	7175.91
923.974	7200.49
924.152	6979.31
924.329	7196.39
924.507	7263.97
924.684	7175.91
924.861	7169.77
925.039	7108.33
925.216	7007.98
925.394	6876.91
925.571	7077.61
925.749	7089.9
925.926	6932.2
926.103	7161.58
926.281	6936.3
926.458	7007.98
926.635	6946.54
926.813	7022.31
926.99	6946.54
927.167	6868.72
927.345	6854.38
927.522	6921.96
927.699	6844.14
927.876	6645.49
928.054	6737.65
928.231	6725.36
928.408	6516.47
928.585	6721.26
928.763	6561.52
928.94	6416.12
929.117	6514.42
929.294	6436.6
929.471	6547.19
929.648	6502.13
929.825	6553.33
930.003	6414.07
930.18	6217.46
930.357	6041.34
930.534	6299.38
930.711	6199.03
930.888	6131.45
931.065	6102.78
931.242	6194.93
931.419	6098.68
931.596	6211.32
931.773	5943.03
931.95	5996.28
932.127	5883.64
932.304	5897.98
932.481	5969.66
932.658	5928.7
932.835	5764.86
933.011	5885.69
933.188	5861.12
933.365	5680.89
933.542	5785.34
933.719	5586.69
933.896	5529.34
934.073	5762.81
934.249	5578.5
934.426	5654.27
934.603	5435.14
934.78	5357.32
934.957	5576.45
935.133	5281.54
935.31	5459.71
935.487	5293.83
935.664	5109.51
935.84	5347.08
936.017	5232.39
936.194	5177.09
936.37	5123.85
936.547	4914.95
936.724	4876.04
936.9	4814.6
937.077	4751.12
937.253	4888.33
937.43	4661.01
937.607	4607.76
937.783	4349.71
937.96	4388.63
938.136	4304.66
938.313	4304.66
938.489	4087.57
938.666	4065.05
938.842	4085.53
939.019	3974.94
939.195	3852.06
939.372	3782.43
939.548	3745.56
939.725	3764
939.901	3755.8
940.077	3723.04
940.254	3481.38
940.43	3587.87
940.607	3424.03
940.783	3387.17
940.959	3262.24
941.136	3340.07
941.312	3258.15
941.488	3135.27
941.665	3227.43
941.841	3094.31
942.017	3114.79
942.193	3125.03
942.37	3010.34
942.546	3106.6
942.722	3014.44
942.898	3100.45
943.074	2805.55
943.251	2934.57
943.427	2899.75
943.603	2801.45
943.779	2920.23
943.955	2981.67
944.131	2979.62
944.308	2709.29
944.484	2723.63
944.66	2645.8
944.836	2807.59
945.012	2778.92
945.188	2748.2
945.364	2662.19
945.54	2764.59
945.716	2645.8
945.892	2688.81
946.068	2639.66
946.244	2543.41
946.42	2629.42
946.596	2627.37
946.772	2582.32
946.948	2567.98
947.124	2434.86
947.3	2481.97
947.475	2596.65
947.651	2574.13
947.827	2498.35
948.003	2627.37
948.179	2529.07
948.355	2543.41
948.531	2506.54
948.706	2541.36
948.882	2541.36
949.058	2398
949.234	2604.85
949.409	2723.63
949.585	2598.7
949.761	2547.5
949.937	2699.05
950.112	2574.13
950.288	2658.09
950.464	2520.88
950.639	2570.03
950.815	2613.04
950.991	2615.09
951.166	2477.87
951.342	2670.38
951.518	2713.39
951.693	2621.23
951.869	2639.66
952.044	2719.53
952.22	2500.4
952.395	2600.75
952.571	2613.04
952.747	2666.28
952.922	2776.87
953.098	2811.69
953.273	2563.89
953.448	2690.86
953.624	2672.43
953.799	2748.2
953.975	2705.2
954.15	2625.33
954.326	2813.74
954.501	2668.33
954.676	2694.96
954.852	2506.54
955.027	2785.07
955.203	2787.11
955.378	2672.43
955.553	2754.35
955.729	2576.17
955.904	2754.35
956.079	2723.63
956.254	2811.69
956.43	2809.64
956.605	2692.91
956.78	2664.24
956.955	2635.57
957.131	2715.44
957.306	2615.09
957.481	2668.33
957.656	2567.98
957.831	2733.87
958.007	2731.82
958.182	2740.01
958.357	2688.81
958.532	2631.47
958.707	2604.85
958.882	2610.99
959.057	2606.89
959.232	2662.19
959.407	2780.97
959.582	2555.69
959.757	2709.29
959.932	2463.54
960.107	2551.6
960.282	2524.97
960.457	2619.18
960.632	2561.84
960.807	2625.33
960.982	2651.95
961.157	2651.95
961.332	2676.52
961.507	2557.74
961.682	2451.25
961.857	2592.56
962.032	2684.72
962.206	2584.37
962.381	2678.57
962.556	2623.28
962.731	2639.66
962.906	2520.88
963.081	2633.52
963.255	2545.45
963.43	2606.89
963.605	2580.27
963.78	2434.86
963.954	2535.21
964.129	2383.66
964.304	2576.17
964.479	2598.7
964.653	2373.43
964.828	2357.04
965.003	2510.64
965.177	2391.86
965.352	2395.95
965.526	2381.62
965.701	2354.99
965.876	2297.65
966.05	2273.07
966.225	2254.64
966.399	2291.51
966.574	2230.07
966.748	2283.31
966.923	2234.16
967.098	2240.31
967.272	2260.79
967.446	2385.71
967.621	2144.05
967.795	2258.74
967.97	2078.52
968.144	2260.79
968.319	2238.26
968.493	2225.97
968.668	2330.42
968.842	2205.49
969.016	2115.38
969.191	2133.81
969.365	2144.05
969.539	2099
969.714	2096.95
969.888	2041.65
970.062	2025.27
970.237	2074.42
970.411	2004.79
970.585	2086.71
970.759	1949.5
970.934	1949.5
971.108	1982.26
971.282	1935.16
971.456	1957.69
971.63	2015.03
971.805	2019.13
971.979	1931.06
972.153	1845.05
972.327	1894.2
972.501	1990.45
972.675	1886.01
972.849	1924.92
973.024	1826.62
973.198	1785.66
973.372	1969.98
973.546	1865.53
973.72	1824.57
973.894	1812.28
974.068	1937.21
974.242	1746.75
974.416	1818.43
974.59	1783.61
974.764	1754.94
974.938	1783.61
975.112	1740.6
975.286	1652.54
975.46	1703.74
975.633	1738.55
975.807	1736.51
975.981	1709.88
976.155	1773.37
976.329	1537.85
976.503	1582.91
976.677	1646.4
976.85	1722.17
977.024	1756.99
977.198	1613.63
977.372	1556.29
977.546	1541.95
977.719	1544
977.893	1568.57
978.067	1529.66
978.241	1562.43
978.414	1595.2
978.588	1568.57
978.762	1533.76
978.935	1417.02
979.109	1556.29
979.283	1486.65
979.456	1470.27
979.63	1564.48
979.804	1521.47
979.977	1513.28
980.151	1503.04
980.324	1462.08
980.498	1541.95
980.671	1457.98
980.845	1445.7
981.018	1455.94
981.192	1462.08
981.365	1384.26
981.539	1341.25
981.712	1437.5
981.886	1314.63
982.059	1322.82
982.233	1394.5
982.406	1294.15
982.58	1357.63
982.753	1331.01
982.926	1447.74
983.1	1378.11
983.273	1347.39
983.446	1238.85
983.62	1242.95
983.793	1187.65
983.966	1193.8
984.14	1232.71
984.313	1197.89
984.486	1179.46
984.66	1148.74
984.833	1173.32
985.006	1146.69
985.179	1144.64
985.352	1101.64
985.526	1079.11
985.699	1021.77
985.872	1142.6
986.045	1128.26
986.218	1128.26
986.391	1124.16
986.565	1167.17
986.738	1097.54
986.911	1032.01
987.084	937.8
987.257	1058.63
987.43	980.81
987.603	991.05
987.776	898.89
987.949	968.52
988.122	1001.29
988.295	935.75
988.468	997.19
988.641	845.64
988.814	864.07
988.987	966.47
989.16	1007.43
989.333	855.88
989.506	839.5
989.679	884.55
989.852	849.74
990.025	868.17
990.197	984.9
990.37	900.94
990.543	763.72
990.716	812.87
990.889	827.21
991.062	839.5
991.234	841.54
991.407	921.42
991.58	866.12
991.753	868.17
991.925	765.77
992.098	778.06
992.271	739.15
992.444	739.15
992.616	730.95
992.789	790.35
992.962	698.19
993.134	769.87
993.307	757.58
993.479	839.5
993.652	689.99
993.825	730.95
993.997	851.78
994.17	704.33
994.342	755.53
994.515	638.8
994.688	694.09
994.86	735.05
995.033	685.9
995.205	579.4
995.378	825.16
995.55	626.51
995.723	657.23
995.895	651.08
996.067	618.32
996.24	675.66
996.412	558.92
996.585	642.89
996.757	677.71
996.929	638.8
997.102	579.4
997.274	685.9
997.447	448.33
997.619	606.03
997.791	595.79
997.964	548.68
998.136	542.54
998.308	536.4
998.48	552.78
998.653	628.56
998.825	608.08
998.997	610.12
999.169	593.74
999.342	485.2
999.514	558.92
999.686	505.68
999.858	503.63
1000.03	505.68
1000.202	427.85
1000.374	558.92
1000.547	425.81
1000.719	409.42
1000.891	470.86
1001.063	481.1
1001.235	571.21
1001.407	513.87
1001.579	507.73
1001.751	483.15
1001.923	456.53
1002.095	532.3
1002.267	364.37
1002.439	448.33
1002.611	483.15
1002.783	395.09
1002.955	302.93
1003.127	421.71
1003.299	446.29
1003.471	368.46
1003.643	436.05
1003.815	390.99
1003.986	446.29
1004.158	366.42
1004.33	327.5
1004.502	483.15
1004.674	276.31
1004.846	442.19
1005.017	470.86
1005.189	403.28
1005.361	393.04
1005.533	343.89
1005.704	384.85
1005.876	407.38
1006.048	409.42
1006.22	372.56
1006.391	339.79
1006.563	454.48
1006.735	272.21
1006.906	302.93
1007.078	341.84
1007.25	333.65
1007.421	307.02
1007.593	274.26
1007.764	243.54
1007.936	302.93
1008.108	153.43
1008.279	245.59
1008.451	243.54
1008.622	231.25
1008.794	302.93
1008.965	304.98
1009.137	292.69
1009.308	343.89
1009.48	327.5
1009.651	313.17
1009.823	259.92
1009.994	188.24
1010.165	206.67
1010.337	229.2
1010.508	218.96
1010.68	163.67
1010.851	243.54
1011.022	364.37
1011.194	194.39
1011.365	165.71
1011.536	178
1011.708	155.47
1011.879	212.82
1012.05	192.34
1012.222	108.37
1012.393	194.39
1012.564	245.59
1012.735	216.91
1012.906	143.19
1013.078	169.81
1013.249	237.39
1013.42	165.71
1013.591	208.72
1013.762	231.25
1013.934	182.1
1014.105	100.18
1014.276	116.56
1014.447	77.65
1014.618	112.47
1014.789	135
1014.96	169.81
1015.131	108.37
1015.302	137.04
1015.473	171.86
1015.644	159.57
1015.815	182.1
1015.986	241.49
1016.157	83.8
1016.328	139.09
1016.499	153.43
1016.67	288.59
1016.841	194.39
1017.012	223.06
1017.183	87.89
1017.354	114.52
1017.525	122.71
1017.696	124.76
1017.867	147.28
1018.037	169.81
1018.208	116.56
1018.379	16.21
1018.55	85.84
1018.721	175.95
1018.891	32.6
1019.062	44.88
1019.233	180.05
1019.404	188.24
1019.574	63.32
1019.745	104.28
1019.916	32.6
1020.087	200.53
1020.257	145.24
1020.428	130.9
1020.599	126.8
1020.769	157.52
1020.94	61.27
1021.11	141.14
1021.281	75.6
1021.452	118.61
1021.622	135
1021.793	143.19
1021.963	63.32
1022.134	36.69
1022.305	112.47
1022.475	202.58
1022.646	79.7
1022.816	169.81
1022.987	165.71
1023.157	53.08
1023.327	141.14
1023.498	-0.17
1023.668	53.08
1023.839	171.86
1024.009	63.32
1024.18	44.88
1024.35	63.32
1024.52	132.95
1024.691	128.85
1024.861	34.64
1025.031	14.17
1025.202	141.14
1025.372	63.32
1025.542	55.12
1025.713	91.99
1025.883	46.93
1026.053	104.28
1026.223	145.24
1026.394	36.69
1026.564	1.88
1026.734	81.75
1026.904	38.74
1027.074	22.36
1027.245	96.08
1027.415	36.69
1027.585	79.7
1027.755	96.08
1027.925	83.8
1028.095	61.27
1028.265	94.04
1028.435	42.84
1028.606	114.52
1028.776	85.84
1028.946	-24.75
1029.116	-16.55
1029.286	71.51
1029.456	102.23
1029.626	38.74
1029.796	53.08
1029.966	30.55
1030.136	34.64
1030.306	-4.27
1030.475	96.08
1030.645	44.88
1030.815	71.51
1030.985	-18.6
1031.155	120.66
1031.325	98.13
1031.495	59.22
1031.665	118.61
1031.835	98.13
1032.004	36.69
1032.174	40.79
1032.344	-96.43
1032.514	5.97
1032.684	40.79
1032.853	87.89
1033.023	-20.65
1033.193	16.21
1033.362	-37.03
1033.532	-10.41
1033.702	-0.17
1033.872	77.65
1034.041	28.5
1034.211	81.75
1034.381	77.65
1034.55	96.08
1034.72	135
1034.889	10.07
1035.059	91.99
1035.229	16.21
1035.398	26.45
1035.568	51.03
1035.737	-22.7
1035.907	26.45
1036.076	-4.27
1036.246	8.02
1036.415	100.18
1036.585	61.27
1036.754	5.97
1036.924	-30.89
1037.093	73.56
1037.263	71.51
1037.432	57.17
1037.601	30.55
1037.771	-18.6
1037.94	5.97
1038.11	-0.17
1038.279	-4.27
1038.448	55.12
1038.618	71.51
1038.787	32.6
1038.956	1.88
1039.126	67.41
1039.295	65.36
1039.464	48.98
1039.633	-10.41
1039.803	83.8
1039.972	71.51
1040.141	-0.17
1040.31	22.36
1040.479	96.08
1040.649	10.07
1040.818	36.69
1040.987	130.9
1041.156	44.88
1041.325	69.46
1041.494	44.88
1041.663	141.14
1041.833	-16.55
1042.002	-2.22
1042.171	30.55
1042.34	75.6
1042.509	87.89
1042.678	-0.17
