Data from Halogen_Light_USB4A006151_15-45-04-131.txt Node
Date: Thu Aug 17 15:45:04 EDT 2023
User: Emmanuel
Spectrometer: USB4A00615
Scans to average: 1
Trigger mode: 4
Integration Time (sec): 2.900000E-2
Electric dark correction enabled: true
Boxcar width: 0
XAxis mode: Wavelengths
Number of Pixels in Spectrum: 3648
>>>>>Begin Spectral Data<<<<<
346.606	33269.76
346.818	33269.76
347.029	33269.76
347.241	-60.93
347.452	-79.36
347.664	-75.26
347.876	41.47
348.087	33.28
348.299	-5.63
348.51	-73.21
348.722	53.76
348.933	8.7
349.145	51.71
349.356	-42.5
349.568	39.42
349.779	-52.74
349.991	20.99
350.202	-30.21
350.414	68.09
350.625	203.26
350.836	61.95
351.048	209.4
351.259	100.86
351.471	125.44
351.682	197.12
351.893	168.45
352.105	20.99
352.316	82.43
352.527	154.11
352.739	205.31
352.95	107.01
353.161	207.36
353.372	221.69
353.584	197.12
353.795	195.07
354.006	172.54
354.217	203.26
354.429	201.21
354.64	90.62
354.851	166.4
355.062	168.45
355.274	223.74
355.485	184.83
355.696	96.77
355.907	225.79
356.118	143.87
356.329	98.81
356.54	113.15
356.752	197.12
356.963	293.37
357.174	201.21
357.385	178.69
357.596	180.73
357.807	229.88
358.018	193.02
358.229	156.16
358.44	215.55
358.651	236.03
358.862	197.12
359.073	197.12
359.284	223.74
359.495	207.36
359.706	233.98
359.917	268.8
360.128	281.08
360.339	272.89
360.55	139.77
360.761	260.6
360.972	217.6
361.182	291.32
361.393	180.73
361.604	205.31
361.815	164.35
362.026	330.23
362.237	334.33
362.447	281.08
362.658	266.75
362.869	215.55
363.08	203.26
363.291	266.75
363.501	229.88
363.712	348.67
363.923	340.47
364.134	266.75
364.344	262.65
364.555	332.28
364.766	272.89
364.976	254.46
365.187	328.19
365.398	313.85
365.608	313.85
365.819	311.8
366.03	301.56
366.24	303.61
366.451	475.64
366.662	363
366.872	328.19
367.083	371.19
367.293	416.25
367.504	373.24
367.714	330.23
367.925	373.24
368.135	281.08
368.346	401.91
368.557	408.06
368.767	387.58
368.977	346.62
369.188	451.07
369.398	428.54
369.609	342.52
369.819	444.92
370.03	348.67
370.24	356.86
370.451	457.21
370.661	354.81
370.871	391.67
371.082	379.39
371.292	410.11
371.502	418.3
371.713	377.34
371.923	369.15
372.133	463.35
372.344	387.58
372.554	467.45
372.764	399.87
372.975	469.5
373.185	440.83
373.395	494.07
373.605	442.87
373.816	424.44
374.026	557.56
374.236	487.93
374.446	549.37
374.656	473.59
374.867	473.59
375.077	451.07
375.287	432.63
375.497	467.45
375.707	500.22
375.917	504.31
376.127	524.79
376.338	506.36
376.548	637.43
376.758	530.94
376.968	524.79
377.178	674.29
377.388	498.17
377.598	631.29
377.808	539.13
378.018	528.89
378.228	596.47
378.438	565.75
378.648	616.95
378.858	619
379.068	578.04
379.278	733.68
379.488	633.33
379.698	651.77
379.908	594.42
380.118	670.2
380.327	713.21
380.537	662.01
380.747	719.35
380.957	768.5
381.167	641.53
381.377	784.88
381.587	758.26
381.796	641.53
382.006	803.32
382.216	694.77
382.426	719.35
382.636	662.01
382.845	741.88
383.055	807.41
383.265	821.75
383.475	795.12
383.684	745.97
383.894	817.65
384.104	817.65
384.313	840.18
384.523	844.28
384.733	844.28
384.942	860.66
385.152	840.18
385.362	870.9
385.571	846.32
385.781	942.58
385.991	1024.5
386.2	856.56
386.41	948.72
386.619	872.95
386.829	903.67
387.038	1016.3
387.248	961.01
387.457	899.57
387.667	938.48
387.876	985.58
388.086	920.05
388.295	965.11
388.505	1065.46
388.714	1098.22
388.924	1077.74
389.133	1028.59
389.343	1098.22
389.552	1182.19
389.762	1114.61
389.971	1210.86
390.18	1153.52
390.39	1288.68
390.599	1221.1
390.808	1188.33
391.018	1196.53
391.227	1143.28
391.436	1171.95
391.646	1067.5
391.855	1182.19
392.064	1180.14
392.274	1262.06
392.483	1233.39
392.692	1192.43
392.901	1251.82
393.111	1327.6
393.32	1341.93
393.529	1307.12
393.738	1386.99
393.947	1348.08
394.157	1335.79
394.366	1401.32
394.575	1341.93
394.784	1272.3
394.993	1429.99
395.202	1391.08
395.411	1454.57
395.62	1493.48
395.83	1325.55
396.039	1423.85
396.248	1434.09
396.457	1507.82
396.666	1577.45
396.875	1608.17
397.084	1593.83
397.293	1511.91
397.502	1581.54
397.711	1692.13
397.92	1556.97
398.129	1530.34
398.338	1688.04
398.547	1487.34
398.756	1700.33
398.965	1462.76
399.174	1581.54
399.382	1620.46
399.591	1698.28
399.8	1692.13
400.009	1636.84
400.218	1599.98
400.427	1706.47
400.636	1671.65
400.844	1671.65
401.053	1688.04
401.262	1729
401.471	1616.36
401.68	1739.24
401.888	1671.65
402.097	1790.44
402.306	1839.59
402.515	1774.05
402.723	1837.54
402.932	1772
403.141	1749.48
403.35	1901.03
403.558	1872.36
403.767	1823.2
403.976	1880.55
404.184	1962.47
404.393	1872.36
404.602	1849.83
404.81	1769.96
405.019	2056.67
405.227	2091.49
405.436	2013.67
405.645	1890.79
405.853	1987.04
406.062	2122.21
406.27	1948.13
406.479	2048.48
406.687	2134.5
406.896	2195.93
407.104	2200.03
407.313	2161.12
407.521	2267.61
407.73	2150.88
407.938	2130.4
408.147	2200.03
408.355	2281.95
408.563	2292.19
408.772	2337.24
408.98	2273.76
409.189	2294.24
409.397	2337.24
409.605	2347.48
409.814	2513.37
410.022	2626.01
410.23	2408.92
410.439	2490.84
410.647	2480.6
410.855	2458.07
411.064	2494.94
411.272	2406.88
411.48	2566.62
411.688	2529.75
411.897	2585.05
412.105	2736.6
412.313	2716.12
412.521	2904.53
412.73	2574.81
412.938	2843.09
413.146	2781.65
413.354	2654.68
413.562	2990.55
413.77	2900.44
413.979	2947.54
414.187	2724.31
414.395	2802.13
414.603	3109.33
414.811	3148.24
415.019	2925.01
415.227	3060.18
415.435	3074.51
415.643	2947.54
415.851	3039.7
416.059	3297.74
416.267	3211.73
416.475	3215.82
416.683	3113.42
416.891	3307.98
417.099	3246.54
417.307	3367.37
417.515	3494.35
417.723	3406.28
417.931	3488.2
418.139	3480.01
418.347	3461.58
418.555	3367.37
418.763	3543.5
418.971	3504.59
419.179	3518.92
419.386	3641.8
419.594	3670.47
419.802	3437
420.01	3488.2
420.218	3674.57
420.426	3568.07
420.633	3738.05
420.841	3693
421.049	3697.1
421.257	3762.63
421.464	4030.91
421.672	3830.21
421.88	3871.17
422.088	3799.49
422.295	3989.96
422.503	4024.77
422.711	3854.79
422.918	4055.49
423.126	3946.95
423.334	3914.18
423.541	3760.58
423.749	4207.04
423.956	4110.79
424.164	3932.61
424.372	4141.5
424.579	4141.5
424.787	4102.59
424.994	4299.2
425.202	4329.92
425.409	4291.01
425.617	4084.16
425.824	4143.55
426.032	4321.73
426.239	4338.11
426.447	4280.77
426.654	4463.04
426.862	4454.84
427.069	4485.56
427.277	4172.22
427.484	4338.11
427.692	4491.71
427.899	4608.44
428.106	4239.81
428.314	4518.33
428.521	4526.52
428.728	4612.54
428.936	4633.02
429.143	4635.07
429.351	4579.77
429.558	4659.64
429.765	4628.92
429.972	4657.59
430.18	4874.68
430.387	4805.05
430.594	4809.14
430.801	4932.02
431.009	4784.57
431.216	4911.54
431.423	4571.58
431.63	5073.33
431.838	4854.2
432.045	4991.41
432.252	4753.85
432.459	5022.13
432.666	5214.64
432.873	5081.52
433.081	5095.86
433.288	5167.54
433.495	5282.22
433.702	5110.19
433.909	5097.91
434.116	5298.61
434.323	5386.67
434.53	5392.81
434.737	5425.58
434.944	5515.69
435.151	5452.2
435.358	5427.63
435.565	5554.6
435.772	5491.12
435.979	5573.03
436.186	5788.07
436.393	5788.07
436.6	5792.17
436.807	5628.33
437.014	5804.46
437.221	5962.15
437.428	5943.72
437.635	5855.65
437.841	5972.39
438.048	6087.08
438.255	6160.8
438.462	6019.49
438.669	6068.64
438.876	6142.37
439.082	6396.32
439.289	6162.85
439.496	6261.15
439.703	6447.52
439.91	6609.31
440.116	6404.51
440.323	6445.47
440.53	6734.23
440.737	6746.52
440.943	6683.03
441.15	6959.51
441.357	6529.44
441.563	6959.51
441.77	6779.29
441.977	6879.64
442.183	7113.11
442.39	7076.24
442.597	6867.35
442.803	7135.64
443.01	7217.55
443.216	7123.35
443.423	6908.31
443.63	6963.61
443.836	7438.73
444.043	6955.41
444.249	7385.49
444.456	7438.73
444.662	7143.83
444.869	7625.1
445.075	7655.82
445.282	7491.98
445.488	7553.42
445.695	7311.76
445.901	7743.88
446.107	7549.32
446.314	7768.46
446.52	7793.03
446.727	7737.74
446.933	7950.73
447.139	7770.51
447.346	8075.65
447.552	8024.45
447.759	7936.39
447.965	8055.17
448.171	8012.17
448.378	7948.68
448.584	8284.55
448.79	7901.58
448.996	8145.28
449.203	8212.87
449.409	7942.53
449.615	8278.4
449.821	8337.79
450.028	8395.14
450.234	8384.9
450.44	8126.85
450.646	8579.45
450.852	8405.38
451.059	8425.86
451.265	8370.56
451.471	8294.79
451.677	8464.77
451.883	9005.43
452.089	8558.97
452.295	8632.7
452.502	8964.47
452.708	8513.92
452.914	9306.48
453.12	8556.93
453.326	8593.79
453.532	9105.78
453.738	8731
453.944	8737.15
454.15	8911.22
454.356	8980.85
454.562	8917.37
454.768	9079.16
454.974	8698.24
455.18	8814.97
455.386	9034.1
455.592	9257.33
455.798	8962.42
456.003	9322.87
456.209	9355.63
456.415	9619.82
456.621	9095.54
456.827	9316.72
457.033	9206.13
457.239	9206.13
457.444	9212.28
457.65	9234.8
457.856	9404.78
458.062	9488.75
458.268	9011.57
458.473	9539.95
458.679	9369.97
458.885	9388.4
459.091	9736.56
459.296	9623.92
459.502	9797.99
459.708	9326.96
459.914	9638.25
460.119	9877.87
460.325	9593.2
460.531	9709.93
460.736	9845.1
460.942	10213.73
461.147	9951.59
461.353	9896.3
461.559	10187.11
461.764	10078.57
461.97	10115.43
462.175	10070.37
462.381	10418.53
462.587	10051.94
462.792	10238.31
462.998	10684.76
463.203	10352.99
463.409	10295.65
463.614	10563.93
463.82	10635.61
464.025	10588.51
464.231	10602.85
464.436	10424.67
464.641	11198.81
464.847	11018.58
465.052	10785.12
465.258	11438.42
465.463	11362.64
465.669	10887.51
465.874	11153.75
466.079	11084.12
466.285	11155.8
466.49	11440.47
466.695	11716.94
466.901	11874.63
467.106	11716.94
467.311	11667.79
467.516	12034.38
467.722	11923.79
467.927	11663.69
468.132	12093.77
468.338	11878.73
468.543	12390.72
468.748	12511.55
468.953	12329.28
469.158	12505.41
469.364	12489.03
469.569	12697.92
469.774	12845.37
469.979	12937.53
470.184	13117.75
470.389	12730.69
470.594	13136.18
470.8	13130.04
471.005	13498.67
471.21	13029.69
471.415	13498.67
471.62	13394.23
471.825	13898.03
472.03	14149.93
472.235	13834.54
472.44	13822.25
472.645	14575.91
472.85	14207.27
473.055	14383.4
473.26	14219.56
473.465	14770.46
473.67	14719.26
473.875	14926.11
474.08	14717.22
474.285	14967.07
474.49	15137.05
474.695	15313.17
474.899	15327.51
475.104	15565.07
475.309	15421.72
475.514	16081.16
475.719	15876.37
475.924	16091.4
476.128	16210.18
476.333	16417.03
476.538	16673.03
476.743	16830.72
476.948	16550.15
477.152	16677.12
477.357	17156.35
477.562	17252.6
477.767	17424.63
477.971	17219.83
478.176	17017.08
478.381	17490.17
478.585	17735.92
478.79	17539.32
478.995	18032.88
479.199	18100.46
479.404	17819.89
479.609	17715.44
479.813	18557.16
480.018	18768.1
480.223	18180.33
480.427	18766.05
480.632	18555.11
480.836	19230.94
481.041	19108.06
481.245	19353.82
481.45	18981.09
481.654	19534.04
481.859	19339.48
482.063	19450.07
482.268	19779.79
482.472	19699.92
482.677	19634.39
482.881	20136.14
483.086	19603.67
483.29	20148.43
483.495	20517.06
483.699	20179.15
483.903	20207.82
484.108	20222.16
484.312	20611.27
484.517	20447.43
484.721	20758.72
484.925	20861.12
485.13	21356.73
485.334	21008.58
485.538	20928.7
485.743	21047.49
485.947	21674.17
486.151	21088.45
486.355	21477.56
486.56	22286.51
486.764	21233.85
486.968	21706.93
487.172	21334.2
487.377	21637.3
487.581	21981.36
487.785	22116.53
487.989	21862.58
488.193	22511.78
488.397	22309.04
488.602	22524.07
488.806	22679.72
489.01	22892.71
489.214	22550.7
489.418	22649
489.622	22692.01
489.826	22804.64
490.03	22972.58
490.234	22712.49
490.438	23201.95
490.642	23494.81
490.846	23017.63
491.05	23345.31
491.254	23376.03
491.458	23572.63
491.662	23253.15
491.866	23675.03
492.07	23689.37
492.274	23300.25
492.478	23333.02
492.682	23789.72
492.886	23939.22
493.09	23574.68
493.294	23994.51
493.498	23855.25
493.701	23980.18
493.905	23810.2
494.109	24246.41
494.313	24014.99
494.517	24307.85
494.721	24103.06
494.924	24285.33
495.128	24613
495.332	24608.9
495.536	24182.93
495.739	24307.85
495.943	24451.21
496.147	24117.39
496.351	24524.94
496.554	24854.66
496.758	24682.63
496.962	24852.61
497.165	24889.48
497.369	24776.84
497.573	24930.44
497.776	24998.02
497.98	25092.23
498.184	25110.66
498.387	25112.7
498.591	24852.61
498.794	25073.79
498.998	25135.23
499.202	25477.24
499.405	24789.13
499.609	25088.13
499.812	25532.54
500.016	25434.24
500.219	25258.11
500.423	25923.7
500.626	25583.74
500.83	25909.36
501.033	25507.96
501.237	25843.83
501.44	25745.53
501.643	25862.26
501.847	26054.77
502.05	26189.94
502.254	25938.04
502.457	26290.29
502.66	25825.4
502.864	26239.09
503.067	26472.56
503.271	26075.25
503.474	26185.84
503.677	26456.17
503.88	25745.53
504.084	26280.05
504.287	26517.61
504.49	26660.97
504.694	26431.6
504.897	26546.28
505.1	25997.43
505.303	26343.53
505.507	26589.29
505.71	27052.13
505.913	26890.34
506.116	26388.59
506.319	26607.72
506.522	26622.06
506.726	26927.21
506.929	27256.93
507.132	27344.99
507.335	27248.74
507.538	26949.73
507.741	27000.93
507.944	27039.84
508.147	27105.38
508.35	27525.21
508.553	27680.86
508.756	27342.94
508.959	27711.58
509.163	27058.28
509.366	27455.58
509.569	27347.04
509.771	28516.43
509.974	27875.41
510.177	27691.1
510.38	27381.85
510.583	27992.15
510.786	27859.03
510.989	28088.4
511.192	28678.22
511.395	27967.57
511.598	28254.29
511.801	28221.52
512.004	28074.07
512.206	28221.52
512.409	28819.53
512.612	28944.45
512.815	29093.96
513.018	28977.22
513.22	28207.19
513.423	28831.82
513.626	28387.41
513.829	29071.43
514.032	29505.6
514.234	29548.61
514.437	29497.41
514.64	29059.14
514.842	28983.37
515.045	29098.05
515.248	29399.1
515.45	29472.83
515.653	29943.86
515.856	30126.13
516.058	30126.13
516.261	29966.39
516.464	29634.62
516.666	30017.59
516.869	30734.38
517.071	31148.07
517.274	30908.46
517.477	31119.4
517.679	30437.42
517.882	30554.16
518.084	30398.51
518.287	30994.47
518.489	31229.99
518.692	31840.28
518.894	31735.84
519.097	31258.66
519.299	31225.89
519.501	30902.31
519.704	31277.09
519.906	31707.16
520.109	31864.86
520.311	32204.82
520.514	32098.33
520.716	32477.2
520.918	31600.67
521.121	31791.13
521.323	31766.56
521.525	32507.92
521.728	32686.09
521.93	32899.08
522.132	33572.86
522.335	32845.83
522.537	32131.09
522.739	32344.08
522.941	32380.95
523.144	32432.15
523.346	33153.03
523.548	33806.33
523.75	33312.77
523.952	33642.49
524.155	32649.23
524.357	32866.31
524.559	32862.22
524.761	33591.3
524.963	33693.69
525.165	34197.49
525.368	34160.63
525.57	34263.03
525.772	33634.3
525.974	33640.45
526.176	33249.28
526.378	33681.41
526.58	33947.64
526.782	34539.5
526.984	34750.45
527.186	34633.71
527.388	34435.06
527.59	33892.35
527.792	33804.28
527.994	33730.56
528.196	33927.16
528.398	35096.55
528.6	34658.29
528.802	35733.47
529.004	35119.08
529.206	35422.18
529.408	34635.76
529.609	34365.43
529.811	34152.44
530.013	34600.94
530.215	35143.66
530.417	35686.37
530.619	35934.17
530.821	35721.18
531.022	35086.31
531.224	34869.23
531.426	34449.39
531.628	34842.6
531.829	34396.15
532.031	35037.16
532.233	35934.17
532.435	36206.55
532.636	36349.91
532.838	35895.26
533.04	35645.41
533.241	35381.22
533.443	34879.47
533.645	35399.65
533.846	35407.84
534.048	35821.53
534.25	36546.51
534.451	36282.33
534.653	36460.5
534.855	35827.68
535.056	35471.33
535.258	35137.51
535.459	35166.18
535.661	35393.51
535.862	35827.68
536.064	35825.63
536.265	37337.03
536.467	36403.16
536.668	36765.65
536.87	36706.26
537.071	36042.71
537.273	35362.79
537.474	35502.05
537.676	36055
537.877	36046.81
538.078	36444.12
538.28	36851.66
538.481	37408.71
538.683	36997.07
538.884	36829.13
539.085	36657.1
539.287	36368.34
539.488	35186.66
539.689	36319.19
539.891	36212.7
540.092	35768.29
540.293	37271.5
540.495	37244.87
540.696	38012.86
540.897	37578.69
541.098	37590.98
541.3	37445.57
541.501	36745.17
541.702	36470.74
541.903	36872.14
542.104	36188.12
542.306	37205.96
542.507	37947.32
542.708	38105.02
542.909	38350.77
543.11	38879.15
543.311	38416.31
543.512	37795.78
543.713	37554.11
543.915	37132.23
544.116	37154.76
544.317	37165
544.518	37091.27
544.719	37689.28
544.92	38418.36
545.121	39315.37
545.322	38979.5
545.523	39550.88
545.724	39161.77
545.925	38449.08
546.126	38850.48
546.327	37543.88
546.528	37988.28
546.729	37914.56
546.929	38600.63
547.13	37787.58
547.331	39008.17
547.532	39393.19
547.733	40306.58
547.934	39722.91
548.135	40189.85
548.336	39442.34
548.536	39952.29
548.737	39313.32
548.938	39112.62
549.139	38434.74
549.34	39042.99
549.54	39157.67
549.741	38920.11
549.942	40157.08
550.143	40578.96
550.343	41107.34
550.544	41363.34
550.745	41289.61
550.945	41256.84
551.146	40963.98
551.347	40546.2
551.547	40284.06
551.748	39923.61
551.949	40439.7
552.149	39614.37
552.35	40013.73
552.551	40808.34
552.751	41080.72
552.952	41285.51
553.152	42012.54
553.353	42332.03
553.553	42461.05
553.754	42571.64
553.954	42432.38
554.155	41432.97
554.356	42141.56
554.556	41203.6
554.756	41162.64
554.957	41342.86
555.157	41283.47
555.358	41564.04
555.558	42018.69
555.759	42344.31
555.959	42852.21
556.159	43112.3
556.36	43470.7
556.56	43767.65
556.761	44105.57
556.961	43904.87
557.161	43693.93
557.362	43476.84
557.562	43265.9
557.762	43114.35
557.963	42618.74
558.163	42815.35
558.363	42674.04
558.563	42682.23
558.764	43310.96
558.964	43546.47
559.164	44267.36
559.364	44406.62
559.565	44795.73
559.765	45057.87
559.965	44836.69
560.165	45496.14
560.365	45098.83
560.565	44937.04
560.766	45774.66
560.966	44318.56
561.166	44771.16
561.366	44527.45
561.566	44760.92
561.766	44455.77
561.966	44377.95
562.166	44687.19
562.366	44459.87
562.566	45293.39
562.766	45170.51
562.966	45702.98
563.166	46260.03
563.366	46171.97
563.566	47009.59
563.766	46452.54
563.966	47279.92
564.166	46782.26
564.366	47060.79
564.566	47130.42
564.766	46925.62
564.966	47118.13
565.166	46307.13
565.366	46487.35
565.565	45602.63
565.765	46409.53
565.965	46149.44
566.165	46198.59
566.365	46591.8
566.565	46219.07
566.764	46059.33
566.964	46329.66
567.164	46690.1
567.364	47048.5
567.564	47226.67
567.763	47836.97
567.963	47965.99
568.163	47963.94
568.362	48234.27
568.562	47939.36
568.762	48285.47
568.961	48539.42
569.161	48768.79
569.361	48449.31
569.56	48815.9
569.76	47970.08
569.96	48285.47
570.159	48267.04
570.359	47349.55
570.558	48453.4
570.758	47056.69
570.958	47746.86
571.157	47740.71
571.357	46929.72
571.556	47759.14
571.756	47339.31
571.955	47736.62
572.155	47634.22
572.354	48256.8
572.554	48025.38
572.753	48301.85
572.953	48312.09
573.152	48138.02
573.351	49205.01
573.551	48910.1
573.75	48645.91
573.95	49350.41
574.149	49065.75
574.348	48961.3
574.548	48903.96
574.747	49663.75
574.946	49151.76
575.146	49678.09
575.345	49616.65
575.544	49024.79
575.744	48811.8
575.943	49542.92
576.142	49215.25
576.342	49022.74
576.541	49291.02
576.74	48801.56
576.939	49694.47
577.138	48607
577.338	49209.11
577.537	49295.12
577.736	48500.51
577.935	48922.39
578.134	48152.35
578.333	48727.83
578.533	48551.71
578.732	48830.23
578.931	48690.97
579.13	48629.53
579.329	48074.53
579.528	48125.73
579.727	48789.27
579.926	48760.6
580.125	48295.71
580.324	48068.39
580.523	48787.22
580.722	48359.2
580.921	48609.05
581.12	48723.74
581.319	48101.15
581.518	49501.96
581.717	47650.6
581.916	48725.78
582.115	48328.48
582.314	48674.59
582.513	48725.78
582.712	48119.59
582.911	48889.62
583.109	48295.71
583.308	49110.8
583.507	48572.19
583.706	48566.04
583.905	48871.19
584.104	49231.63
584.302	48414.49
584.501	49258.26
584.7	48254.75
584.899	48709.4
585.098	48867.09
585.296	48709.4
585.495	48830.23
585.694	47906.6
585.892	49301.26
586.091	48418.59
586.29	48893.72
586.488	48797.46
586.687	48424.73
586.886	48355.1
587.084	48430.88
587.283	49151.76
587.482	47826.73
587.68	49104.66
587.879	48404.25
588.077	48381.73
588.276	48217.89
588.475	48903.96
588.673	47707.94
588.872	49086.23
589.07	48295.71
589.269	48547.61
589.467	48719.64
589.666	48224.03
589.864	48670.49
590.063	48473.88
590.261	48830.23
590.46	47861.54
590.658	48580.38
590.857	47742.76
591.055	48512.8
591.253	48115.49
591.452	48146.21
591.65	48322.33
591.848	48150.31
592.047	48469.79
592.245	47916.84
592.444	48508.7
592.642	48191.26
592.84	48449.31
593.038	47714.09
593.237	48494.36
593.435	47759.14
593.633	48586.52
593.832	47535.91
594.03	48484.12
594.228	47210.29
594.426	47769.38
594.624	48174.88
594.823	47734.57
595.021	48760.6
595.219	47294.25
595.417	49317.65
595.615	47337.26
595.813	49073.94
596.012	48064.29
596.21	48252.7
596.408	48019.24
596.606	48516.89
596.804	48197.41
597.002	47890.21
597.2	49135.38
597.398	48068.39
597.596	48699.16
597.794	48400.16
597.992	49301.26
598.19	48371.49
598.388	49159.95
598.586	47978.28
598.784	48785.18
598.982	48164.64
599.18	49121.04
599.378	48312.09
599.576	48736.02
599.774	48303.9
599.972	48953.11
600.17	48334.62
600.368	48793.37
600.565	48805.66
600.763	48269.09
600.961	48756.5
601.159	48303.9
601.357	50009.86
601.555	48135.97
601.752	49385.23
601.95	47953.7
602.148	49581.84
602.346	48432.92
602.544	49047.32
602.741	48256.8
602.939	49737.48
603.137	49211.15
603.334	49108.75
603.532	49506.06
603.73	48776.98
603.927	49620.75
604.125	49118.99
604.323	49831.69
604.52	49297.17
604.718	49477.39
604.916	48486.17
605.113	50005.76
605.311	49073.94
605.508	49936.13
605.706	49323.79
605.904	49790.73
606.101	49374.99
606.299	50190.08
606.496	49561.36
606.694	49303.31
606.891	49473.29
607.089	50448.13
607.286	49837.83
607.484	50218.75
607.681	49229.58
607.879	50388.74
608.076	50030.34
608.273	49524.49
608.471	50337.54
608.668	49843.98
608.866	49805.06
609.063	49495.82
609.26	50374.4
609.458	49360.65
609.655	50947.83
609.852	49790.73
610.05	51218.16
610.247	50259.71
610.444	51795.69
610.642	49723.15
610.839	51767.02
611.036	50183.94
611.233	51818.22
611.431	49727.24
611.628	51238.64
611.825	49927.94
612.022	51146.48
612.22	50038.53
612.417	51289.84
612.614	50622.2
612.811	51105.52
613.008	50896.63
613.205	50657.02
613.402	51541.74
613.6	51623.66
613.797	51623.66
613.994	51523.31
614.191	51728.11
614.388	50962.17
614.585	51480.3
614.782	50462.46
614.979	51926.76
615.176	51158.77
615.373	52078.31
615.57	50970.36
615.767	52023.01
615.964	51850.98
616.161	52555.49
616.358	51658.48
616.555	52526.81
616.752	52111.08
616.949	53126.87
617.146	51877.61
617.343	52803.29
617.539	51660.52
617.736	52522.72
617.933	51814.12
618.13	52623.07
618.327	52426.46
618.524	53331.67
618.721	52328.16
618.917	53733.07
619.114	52903.64
619.311	52913.88
619.508	52481.76
619.704	53212.88
619.901	51427.06
620.098	53212.88
620.295	51760.87
620.491	53255.89
620.688	52807.39
620.885	53128.92
621.081	52993.75
621.278	53921.48
621.475	53104.34
621.671	54609.6
621.868	53518.03
622.065	54007.5
622.261	53247.7
622.458	53745.36
622.655	53001.94
622.851	54456
623.048	53210.84
623.244	54341.31
623.441	53929.67
623.637	54752.96
623.834	53714.64
624.03	54787.77
624.227	52836.06
624.423	54810.3
624.62	52987.61
624.816	54900.41
625.013	53016.28
625.209	55260.85
625.406	54216.39
625.602	55365.3
625.798	53632.72
625.995	55154.36
626.191	53219.03
626.388	55715.5
626.584	53597.9
626.78	55303.86
626.977	53952.2
627.173	55465.65
627.369	54310.6
627.566	55439.03
627.762	53997.26
627.958	55754.41
628.154	54490.82
628.351	54888.12
628.547	54322.88
628.743	55334.58
628.939	54347.46
629.136	56207.01
629.332	54785.72
629.528	55891.63
629.724	54331.07
629.92	56022.7
630.116	54988.47
630.313	56256.17
630.509	54625.98
630.705	55639.73
630.901	55258.8
631.097	56452.77
631.293	54808.25
631.489	56100.52
631.685	54566.59
631.881	55893.68
632.077	55056.06
632.273	56096.42
632.469	55639.73
632.665	56204.97
632.861	55785.13
633.057	55801.52
633.253	54773.44
633.449	55615.15
633.645	55824.04
633.841	55557.81
634.037	55662.25
634.233	56385.19
634.429	56125.1
634.625	55445.17
634.821	55830.19
635.017	55152.31
635.212	56176.29
635.408	55054.01
635.604	57360.02
635.8	55461.55
635.996	56628.9
636.191	55017.14
636.387	56305.32
636.583	54376.13
636.779	56860.32
636.975	55119.54
637.17	56676
637.366	55527.09
637.562	56964.76
637.757	55113.4
637.953	56389.28
638.149	55131.83
638.345	56094.38
638.54	55570.1
638.736	57206.42
638.931	55424.69
639.127	55826.09
639.323	55666.35
639.518	55987.88
639.714	55801.52
639.909	55414.45
640.105	56714.91
640.301	54834.88
640.496	56561.31
640.692	54873.79
640.887	56071.85
641.083	55101.11
641.278	55965.35
641.474	55463.6
641.669	55928.49
641.865	55469.75
642.06	56022.7
642.256	55363.25
642.451	55891.63
642.646	54900.41
642.842	56667.81
643.037	55144.12
643.233	55934.63
643.428	54460.1
643.623	56043.18
643.819	55168.69
644.014	56000.17
644.209	55656.11
644.405	54726.33
644.6	55058.1
644.795	54421.19
644.99	55846.57
645.186	54269.64
645.381	56245.93
645.576	53989.06
645.771	56282.79
645.967	54005.45
646.162	56030.89
646.357	54380.23
646.552	55713.45
646.747	54345.41
646.943	55037.62
647.138	54511.3
647.333	54712
647.528	55273.14
647.723	54390.47
647.918	54746.81
648.113	54691.52
648.308	55342.77
648.504	53587.66
648.699	54621.89
648.894	54189.77
649.089	55205.56
649.284	53315.28
649.479	55041.72
649.674	53296.85
649.869	54986.42
650.064	53311.19
650.259	54369.99
650.454	53765.84
650.649	54101.7
650.844	54521.54
651.038	53407.44
651.233	54560.45
651.428	53249.75
651.623	54490.82
651.818	52651.74
652.013	54179.53
652.208	52971.22
652.403	53860.04
652.597	53180.12
652.792	53591.76
652.987	53302.99
653.182	53417.68
653.377	53548.75
653.571	53376.72
653.766	53683.92
653.961	52707.04
654.156	53450.45
654.35	53010.14
654.545	53569.23
654.74	52717.28
654.935	53405.39
655.129	51977.96
655.324	53313.23
655.519	52326.11
655.713	52883.16
655.908	52842.2
656.102	52580.06
656.297	53255.89
656.492	51941.1
656.686	53544.65
656.881	51861.22
657.075	53438.16
657.27	51726.06
657.464	52305.63
657.659	52090.6
657.854	52225.76
658.048	51767.02
658.243	52217.57
658.437	51732.2
658.631	51996.39
658.826	51726.06
659.02	52246.24
659.215	52500.19
659.409	50896.63
659.604	53532.37
659.798	51431.15
659.992	52537.05
660.187	50642.68
660.381	51664.62
660.576	51654.38
660.77	50673.4
660.964	52709.08
661.159	50616.06
661.353	51930.86
661.547	50722.55
661.742	51439.34
661.936	51367.66
662.13	51455.73
662.324	51375.86
662.519	51375.86
662.713	50716.41
662.907	51310.32
663.101	51316.46
663.295	50009.86
663.49	51402.48
663.684	50460.41
663.878	52041.45
664.072	49958.66
664.266	51214.07
664.46	51095.28
664.654	50331.39
664.849	51148.53
665.043	49729.29
665.237	50665.21
665.431	50706.17
665.625	50024.2
665.819	50067.2
666.013	50933.49
666.207	49657.61
666.401	50919.16
666.595	49835.78
666.789	50188.03
666.983	50771.71
667.177	49325.84
667.371	51603.18
667.565	49057.56
667.759	50708.22
667.953	50188.03
668.147	49207.06
668.34	50136.83
668.534	49305.36
668.728	49714.95
668.922	49551.12
669.116	49071.89
669.31	49456.91
669.504	49821.45
669.697	48998.16
669.891	50325.25
670.085	48992.02
670.279	48549.66
670.473	50286.34
670.666	48252.7
670.86	50683.64
671.054	48240.42
671.248	48256.8
671.441	49205.01
671.635	48690.97
671.829	49420.05
672.022	48887.57
672.216	48924.44
672.41	49266.45
672.603	48951.06
672.797	47732.52
672.99	49667.85
673.184	47707.94
673.378	48561.95
673.571	49334.03
673.765	47204.14
673.958	49475.34
674.152	48191.26
674.345	48408.35
674.539	48867.09
674.733	48475.93
674.926	47376.17
675.12	48779.03
675.313	48043.81
675.506	47576.87
675.7	49110.8
675.893	46829.37
676.087	49483.53
676.28	47456.04
676.474	47349.55
676.667	49350.41
676.86	46915.38
677.054	48353.05
677.247	47562.54
677.441	47660.84
677.634	47632.17
677.827	48346.91
678.02	47122.22
678.214	47335.21
678.407	47867.69
678.6	46362.43
678.794	48492.32
678.987	46753.59
679.18	46876.47
679.373	47910.69
679.567	46360.38
679.76	47568.68
679.953	47294.25
680.146	47544.11
680.339	46786.36
680.533	47961.89
680.726	46294.85
680.919	47380.27
681.112	47904.55
681.305	45496.14
681.498	48043.81
681.691	46581.56
681.884	46307.13
682.077	47337.26
682.271	46448.44
682.464	46524.22
682.657	47236.91
682.85	46903.09
683.043	45803.33
683.236	47808.29
683.429	46686.01
683.622	46032.71
683.815	47462.19
684.008	45391.69
684.201	46946.1
684.393	46907.19
684.586	46245.69
684.779	46335.8
684.972	46524.22
685.165	46190.4
685.358	45815.62
685.551	47554.35
685.744	45483.85
685.937	46255.93
686.129	46384.96
686.322	45043.54
686.515	46796.6
686.708	46042.95
686.901	45535.05
687.093	45750.09
687.286	45836.1
687.479	46102.34
687.672	44611.42
687.864	46847.8
688.057	44517.21
688.25	46071.62
688.442	45756.23
688.635	44949.33
688.828	45492.04
689.02	45352.78
689.213	45258.57
689.406	44941.14
689.598	45473.61
689.791	45039.44
689.984	44535.64
690.176	46493.5
690.369	44390.23
690.561	45137.74
690.754	45563.72
690.946	44549.98
691.139	45868.87
691.331	45018.96
691.524	44914.51
691.716	44638.04
691.909	45258.57
692.101	45217.61
692.294	44406.62
692.486	45545.29
692.679	44486.49
692.871	44635.99
693.063	45274.96
693.256	44685.14
693.448	44934.99
693.641	44722.01
693.833	45717.32
694.025	44044.13
694.218	44746.58
694.41	45041.49
694.602	43642.73
694.795	45268.81
694.987	44058.46
695.179	44703.57
695.372	44535.64
695.564	44070.75
695.756	45053.78
695.948	44027.74
696.14	44762.96
696.333	44087.14
696.525	43544.42
696.717	44676.95
696.909	44134.24
697.101	44121.95
697.294	43521.9
697.486	44160.86
697.678	44193.63
697.87	43509.61
698.062	44519.26
698.254	43601.77
698.446	43315.05
698.638	44351.32
698.83	43935.59
699.022	43718.5
699.215	44140.38
699.407	43935.59
699.599	43685.73
699.791	43274.09
699.983	44201.82
700.175	42743.67
700.367	43505.51
700.558	43820.9
700.75	43480.94
700.942	43800.42
701.134	42815.35
701.326	44375.9
701.518	43186.03
701.71	42889.07
701.902	44257.12
702.094	42995.57
702.286	42913.65
702.477	43470.7
702.669	42991.47
702.861	43544.42
703.053	42424.18
703.245	43390.83
703.436	42747.76
703.628	42350.46
703.82	43485.03
704.012	43253.61
704.203	43104.11
704.395	43108.21
704.587	43069.29
704.779	43194.22
704.97	42123.13
705.162	43183.98
705.354	42717.04
705.545	42332.03
705.737	43073.39
705.929	42076.03
706.12	42825.59
706.312	42164.09
706.503	41940.86
706.695	42979.18
706.887	41478.02
707.078	42252.16
707.27	42477.43
707.461	42002.3
707.653	42702.71
707.844	41232.27
708.036	42715
708.227	41940.86
708.419	41512.84
708.61	43249.52
708.802	41148.3
708.993	42006.4
709.185	41881.47
709.376	41424.78
709.567	42803.06
709.759	40857.49
709.95	42164.09
710.141	41860.99
710.333	41340.81
710.524	42360.7
710.716	41605
710.907	41873.28
711.098	41459.59
711.289	40621.97
711.481	41740.16
711.672	41297.8
711.863	41518.98
712.055	41807.75
712.246	40449.94
712.437	42086.27
712.628	40851.34
712.82	40984.46
713.011	42235.77
713.202	40005.53
713.393	41486.21
713.584	41181.07
713.775	41289.61
713.967	41697.16
714.158	39899.04
714.349	41211.79
714.54	41082.77
714.731	40015.77
714.922	41031.57
715.113	40167.32
715.304	40777.62
715.495	41002.89
715.686	40066.97
715.877	41129.87
716.068	40402.84
716.259	39905.18
716.45	40513.43
716.641	39600.04
716.832	40859.54
717.023	39991.2
717.214	38981.55
717.405	41111.44
717.596	39309.22
717.787	40589.2
717.978	40026.01
718.169	38909.87
718.36	40406.94
718.55	38647.73
718.741	39438.25
718.932	40062.88
719.123	38465.46
719.314	39862.18
719.505	38752.18
719.695	38864.81
719.886	39927.71
720.077	38746.03
720.268	38289.34
720.458	39464.87
720.649	38219.7
720.84	39315.37
721.031	38555.57
721.221	38457.27
721.412	39239.59
721.603	38414.26
721.793	38754.22
721.984	39282.6
722.175	37470.15
722.365	39356.33
722.556	37996.48
722.746	38141.88
722.937	38741.94
723.128	37900.22
723.318	39055.28
723.509	38223.8
723.699	37590.98
723.89	39298.98
724.08	38006.72
724.271	37887.93
724.461	38340.53
724.652	37324.74
724.842	38928.3
725.033	37728.19
725.223	37730.24
725.414	38739.89
725.604	37146.57
725.794	38531
725.985	38549.43
726.175	37048.27
726.366	38584.24
726.556	37781.44
726.746	36988.88
726.937	38881.2
727.127	37324.74
727.317	38088.63
727.508	38119.35
727.698	37042.12
727.888	38367.16
728.079	37734.34
728.269	37298.12
728.459	38334.39
728.649	37144.52
728.84	37728.19
729.03	38592.44
729.22	36745.17
729.41	38268.86
729.6	37113.8
729.791	37277.64
729.981	38750.13
730.171	36851.66
730.361	37562.31
730.551	38105.02
730.741	36706.26
730.931	38055.87
731.121	37803.97
731.311	36685.78
731.502	38277.05
731.692	36630.48
731.882	37169.1
732.072	38135.74
732.262	36321.24
732.452	37363.65
732.642	37271.5
732.832	36118.49
733.022	37443.52
733.212	36804.56
733.402	36515.79
733.591	38051.77
733.781	36247.51
733.971	37246.92
734.161	37296.07
734.351	35950.56
734.541	37543.88
734.731	36976.59
734.921	36018.14
735.111	37658.56
735.3	36089.82
735.49	36237.27
735.68	37484.48
735.87	35899.36
736.06	36874.19
736.249	37179.34
736.439	35895.26
736.629	37162.95
736.819	36857.81
737.008	35766.24
737.198	36911.05
737.388	35991.51
737.577	35870.68
737.767	37312.45
737.957	35446.76
738.146	36143.06
738.336	36562.9
738.526	34789.36
738.715	36931.53
738.905	36030.43
739.094	35657.7
739.284	36591.57
739.474	35901.4
739.663	35309.54
739.853	36829.13
740.042	35332.07
740.232	35674.08
740.421	36970.44
740.611	35092.46
740.8	36151.26
740.99	36364.25
741.179	34770.93
741.369	36792.27
741.558	35794.91
741.748	34906.09
741.937	36552.66
742.126	35401.7
742.316	34953.19
742.505	36640.72
742.695	34850.8
742.884	35264.49
743.073	36462.55
743.263	34263.03
743.452	35358.69
743.641	35895.26
743.831	34410.48
744.02	35733.47
744.209	35102.7
744.398	34025.46
744.588	36120.54
744.777	35260.39
744.966	34281.46
745.155	35821.53
745.345	34564.08
745.534	34785.26
745.723	36028.38
745.912	33740.8
746.101	34807.79
746.29	35835.87
746.48	33599.49
746.669	35442.66
746.858	35123.18
747.047	33613.82
747.236	35119.08
747.425	35121.13
747.614	33626.11
747.803	35624.93
747.992	34279.41
748.181	33753.08
748.37	35428.32
748.559	33847.29
748.748	33533.95
748.937	35229.67
749.126	33191.94
749.315	34125.82
749.504	35086.31
749.693	32864.27
749.882	34019.32
750.071	35051.5
750.26	32589.84
750.449	34330.61
750.638	34625.52
750.826	32589.84
751.015	35069.93
751.204	34303.99
751.393	32591.89
751.582	34666.48
751.771	33691.65
751.959	32755.72
752.148	34525.17
752.337	33712.13
752.526	32542.74
752.714	35043.31
752.903	33353.73
753.092	32569.36
753.281	34367.48
753.469	32923.66
753.658	32739.34
753.847	34510.83
754.035	32436.24
754.224	32825.36
754.413	34635.76
754.601	32059.41
754.79	32722.96
754.979	34017.27
755.167	32192.53
755.356	32811.02
755.544	33648.64
755.733	31965.21
755.921	33464.32
756.11	33959.93
756.298	31340.58
756.487	32997.38
756.675	33591.3
756.864	31457.31
757.052	33103.88
757.241	33626.11
757.429	31674.4
757.618	33282.05
757.806	32800.78
757.995	31082.53
758.183	32802.83
758.371	32751.63
758.56	30812.2
758.748	33202.18
758.937	32186.39
759.125	31174.69
759.313	33255.43
759.502	31901.72
759.69	30730.28
759.878	33138.69
760.066	32102.42
760.255	30713.9
760.443	32792.59
760.631	32016.41
760.819	30515.25
761.008	32981
761.196	31813.66
761.384	30748.71
761.572	32507.92
761.761	31991.83
761.949	30115.89
762.137	32552.98
762.325	31758.36
762.513	30183.48
762.701	32886.79
762.889	31193.12
763.077	30132.28
763.266	32321.55
763.454	31164.45
763.642	30091.32
763.83	32200.72
764.018	31154.21
764.206	30079.03
764.394	32290.84
764.582	30801.96
764.77	29741.11
764.958	31782.94
765.146	30984.23
765.334	29481.02
765.522	32202.77
765.71	30849.07
765.898	29749.31
766.085	31500.32
766.273	30826.54
766.461	29304.9
766.649	31590.43
766.837	30885.93
767.025	29569.08
767.213	31285.28
767.401	31000.61
767.588	29147.2
767.776	31395.87
767.964	31064.1
768.152	29265.99
768.339	30849.07
768.527	31219.75
768.715	28901.45
768.903	30562.35
769.09	31160.36
769.278	28672.07
769.466	30541.87
769.654	30986.28
769.841	28561.48
770.029	29569.08
770.217	31186.98
770.404	28565.58
770.592	28991.56
770.779	31340.58
770.967	28846.15
771.155	29245.51
771.342	30834.73
771.53	28794.95
771.717	28375.12
771.905	30957.61
772.092	28667.98
772.28	27816.02
772.467	30382.13
772.655	29075.52
772.842	28092.5
773.03	30099.51
773.217	29136.96
773.405	27856.98
773.592	29943.86
773.78	29136.96
773.967	27312.22
774.154	29675.58
774.342	29491.26
774.529	27320.42
774.717	28917.83
774.904	29679.68
775.091	27416.67
775.279	28452.94
775.466	29642.81
775.653	27533.4
775.841	27734.1
776.028	29886.52
776.215	27127.91
776.402	27351.13
776.59	29800.51
776.777	27957.33
776.964	26949.73
777.151	29349.95
777.338	27924.57
777.526	26771.56
777.713	29118.53
777.9	28442.7
778.087	26577
778.274	28452.94
778.461	28698.7
778.649	26558.57
778.836	28250.19
779.023	28704.84
779.21	26548.33
779.397	26835.05
779.584	28622.92
779.771	26931.3
779.958	26450.03
780.145	28772.42
780.332	27373.66
780.519	26384.49
780.706	28438.61
780.893	27267.17
781.08	25751.67
781.267	27461.72
781.454	27891.8
781.641	25632.89
781.828	26839.14
782.015	27988.05
782.202	25487.48
782.388	26306.67
782.575	27502.68
782.762	25905.27
782.949	24985.73
783.136	27310.18
783.323	26347.63
783.509	24971.39
783.696	27396.19
783.883	26382.45
784.07	24420.49
784.257	26368.11
784.443	26867.81
784.63	24805.51
784.817	25180.29
785.004	26798.18
785.19	25063.55
785.377	24615.05
785.564	26663.02
785.75	25761.91
785.937	24209.55
786.124	26181.74
786.31	25913.46
786.497	24144.02
786.683	25565.31
786.87	26212.46
787.057	24090.77
787.243	24637.58
787.43	26284.14
787.616	24385.68
787.803	23986.32
787.989	26024.05
788.176	25176.19
788.362	23263.39
788.549	25510.01
788.735	25612.41
788.922	23447.71
789.108	24537.23
789.295	25706.62
789.481	24197.26
789.668	23971.99
789.854	26161.26
790.04	24758.41
790.227	23373.98
790.413	25448.57
790.599	25495.67
790.786	23591.06
790.972	25131.14
791.158	25841.78
791.345	23949.46
791.531	23879.83
791.717	26122.35
791.904	24737.93
792.09	23384.22
792.276	25487.48
792.462	25606.27
792.649	23316.64
792.835	24875.14
793.021	26132.59
793.207	23971.99
793.393	23371.93
793.58	26067.06
793.766	24893.57
793.952	23576.73
794.138	25256.06
794.324	25727.1
794.51	23855.25
794.696	24334.48
794.882	25952.37
795.069	24440.97
795.255	23619.74
795.441	25725.05
795.627	25333.89
795.813	23615.64
795.999	25632.89
796.185	26189.94
796.371	23543.96
796.557	24049.81
796.743	26366.06
796.929	24850.56
797.115	23339.16
797.3	25809.01
797.486	26065.01
797.672	23582.87
797.858	24862.85
798.044	26288.24
798.23	24590.47
798.416	23830.68
798.602	26065.01
798.788	24961.16
798.973	23476.38
799.159	25004.16
799.345	26284.14
799.531	23965.84
799.717	24037.52
799.902	26112.11
800.088	24858.76
800.274	23247.01
800.46	25235.58
800.645	25784.44
800.831	23435.42
801.017	23818.39
801.202	25979
801.388	24856.71
801.574	23322.78
801.759	25022.59
801.945	25903.22
802.131	23533.72
802.316	23619.74
802.502	25948.28
802.687	24326.28
802.873	23187.61
803.058	24789.13
803.244	25620.6
803.43	23042.21
803.615	23621.78
803.801	25620.6
803.986	23916.69
804.172	22692.01
804.357	25002.11
804.543	24965.25
804.728	22845.6
804.913	23308.44
805.099	25270.4
805.284	24002.71
805.47	22593.7
805.655	24500.36
805.84	25112.7
806.026	22778.02
806.211	23034.02
806.397	24879.24
806.582	23933.07
806.767	22044.85
806.953	24068.24
807.138	24873.09
807.323	22528.17
807.508	22591.66
807.694	25176.19
807.879	23484.57
808.064	22032.56
808.249	23605.4
808.435	24664.2
808.62	22370.47
808.805	22468.78
808.99	24551.56
809.175	23789.72
809.361	21866.67
809.546	23095.46
809.731	24549.51
809.916	22532.26
810.101	21881.01
810.286	24207.5
810.471	23957.65
810.656	21584.05
810.841	22374.57
811.026	23715.99
811.211	23191.71
811.396	21467.32
811.581	22968.48
811.766	23808.15
811.951	21586.1
812.136	21489.85
812.321	23429.27
812.506	22884.51
812.691	21196.99
812.876	22577.32
813.061	23324.83
813.246	21805.24
813.431	20967.62
813.616	22913.19
813.801	22812.84
813.986	21174.46
814.17	21196.99
814.355	22755.49
814.54	22149.29
814.725	20461.77
814.91	21541.05
815.094	22859.94
815.279	20693.19
815.464	20146.38
815.649	22157.49
815.833	22343.85
816.018	20267.21
816.203	20768.96
816.388	22184.11
816.572	21461.18
816.757	20152.52
816.942	21250.24
817.126	22130.86
817.311	20656.32
817.496	19925.2
817.68	21549.24
817.865	21690.55
818.049	20123.85
818.234	19785.94
818.419	21510.33
818.603	21078.21
818.788	19468.5
818.972	20021.45
819.157	21848.24
819.341	20363.47
819.526	19085.53
819.71	20490.44
819.895	21180.6
820.079	19415.26
820.264	19163.36
820.448	20676.8
820.633	20940.99
820.817	18772.19
821.001	19118.3
821.186	20725.96
821.37	20250.83
821.554	18518.25
821.739	19362.01
821.923	20635.85
822.108	19665.11
822.292	18555.11
822.476	19898.58
822.66	20185.29
822.845	19288.28
823.029	18360.55
823.213	19994.83
823.398	20097.23
823.582	18424.04
823.766	18555.11
823.95	19661.01
824.134	19474.65
824.319	18006.25
824.503	18448.61
824.687	20050.13
824.871	19136.73
825.055	17858.8
825.239	18397.42
825.423	19640.53
825.608	18444.52
825.792	17817.84
825.976	18608.36
826.16	19523.8
826.344	18270.44
826.528	17266.94
826.712	18591.97
826.896	18860.26
827.08	17463.54
827.264	17346.81
827.448	19007.71
827.632	18471.14
827.816	17182.97
828	17340.66
828.184	18663.65
828.368	18301.16
828.552	16634.11
828.736	17357.05
828.919	18153.71
829.103	17645.81
829.287	16558.34
829.471	17105.15
829.655	18122.99
829.839	17746.16
830.023	16189.7
830.206	17051.9
830.39	18135.28
830.574	17414.39
830.758	16115.98
830.941	17029.37
831.125	18086.12
831.309	16597.25
831.493	16072.97
831.676	16834.82
831.86	17752.31
832.044	16507.14
832.227	15870.22
832.411	16918.78
832.595	17422.58
832.778	16402.69
832.962	15669.52
833.146	16789.76
833.329	17228.03
833.513	16060.68
833.696	15638.8
833.88	16529.67
834.064	17088.76
834.247	16185.61
834.431	15563.03
834.614	16410.89
834.798	16818.43
834.981	15712.53
835.165	15048.99
835.348	16285.96
835.532	16617.73
835.715	15833.36
835.898	15257.88
836.082	16048.4
836.265	16355.59
836.449	15585.55
836.632	14860.57
836.815	16101.64
836.999	16361.73
837.182	15409.43
837.365	14704.93
837.549	15626.51
837.732	15814.93
837.915	15143.19
838.099	14348.58
838.282	15294.74
838.465	15935.76
838.648	14764.32
838.832	14295.33
839.015	15118.62
839.198	15575.31
839.381	14989.6
839.565	14000.43
839.748	14852.38
839.931	15497.49
840.114	14752.03
840.297	14149.93
840.48	14539.04
840.663	14938.4
840.847	14553.38
841.03	13840.68
841.213	14342.44
841.396	14876.96
841.579	14307.62
841.762	13562.16
841.945	14057.77
842.128	14686.5
842.311	14391.59
842.494	13553.97
842.677	13857.07
842.86	14491.94
843.043	14389.54
843.226	13355.32
843.409	13670.7
843.592	14115.11
843.775	13918.51
843.958	13603.12
844.141	13193.53
844.323	13957.42
844.506	14022.95
844.689	13566.26
844.872	13211.96
845.055	14004.52
845.238	14131.5
845.42	13291.83
845.603	13050.17
845.786	13762.86
845.969	14180.65
846.152	13492.53
846.334	13044.02
846.517	13101.37
846.7	14262.57
846.883	13420.85
847.065	12869.95
847.248	13070.65
847.431	13525.3
847.613	13365.56
847.796	12990.78
847.979	12665.15
848.161	13336.88
848.344	13283.64
848.526	12771.65
848.709	12661.05
848.892	13105.46
849.074	13486.39
849.257	13023.55
849.439	12267.84
849.622	12910.91
849.804	13500.72
849.987	12880.19
850.169	12380.48
850.352	12327.24
850.534	13015.35
850.717	12810.56
850.899	12298.56
851.082	12464.45
851.264	12687.68
851.446	12812.6
851.629	12362.05
851.811	12149.06
851.994	12511.55
852.176	12906.81
852.358	12417.35
852.541	12036.42
852.723	12112.2
852.905	12468.55
853.088	12556.61
853.27	11833.68
853.452	11673.93
853.635	12222.79
853.817	12335.43
853.999	11938.12
854.181	11579.73
854.363	12104.01
854.546	12325.19
854.728	12022.09
854.91	11401.55
855.092	11553.1
855.274	12011.85
855.457	12015.94
855.639	11440.47
855.821	11356.5
856.003	11702.61
856.185	11835.72
856.367	11594.06
856.549	11168.09
856.731	11614.54
856.913	11651.41
857.095	11723.09
857.277	11204.95
857.459	11209.04
857.641	11753.8
857.823	11651.41
858.005	11356.5
858.187	10916.19
858.369	11266.39
858.551	11575.63
858.733	11340.11
858.915	10969.43
859.097	10920.28
859.279	11274.58
859.461	11450.71
859.643	10948.95
859.824	10801.5
860.006	10907.99
860.188	11475.28
860.37	11182.42
860.552	10862.94
860.734	10938.71
860.915	11149.65
861.097	11225.43
861.279	10858.84
861.461	10756.44
861.642	10905.95
861.824	11094.36
862.006	11071.83
862.188	10639.71
862.369	10783.07
862.551	10994.01
862.733	10899.8
862.914	10606.94
863.096	10533.22
863.278	10817.88
863.459	11102.55
863.641	10434.91
863.822	10486.11
864.004	10447.2
864.185	11020.63
864.367	10938.71
864.549	10363.23
864.73	10490.21
864.912	10379.62
865.093	10772.83
865.275	10621.28
865.456	10178.92
865.638	10002.79
865.819	10307.94
866.001	10578.27
866.182	10459.49
866.363	10223.97
866.545	10168.68
866.726	10537.31
866.908	10500.45
867.089	10097
867.27	9814.38
867.452	10187.11
867.633	10369.38
867.814	10162.53
867.996	9789.8
868.177	9740.65
868.358	10123.62
868.54	9922.92
868.721	9937.26
868.902	9793.9
869.083	9646.44
869.265	9912.68
869.446	9800.04
869.627	9699.69
869.808	9587.05
869.989	9685.36
870.171	9970.02
870.352	9757.04
870.533	9378.16
870.714	9453.94
870.895	9701.74
871.076	9763.18
871.257	9441.65
871.438	9353.59
871.619	9281.91
871.801	9585.01
871.982	9513.33
872.163	9326.96
872.344	9298.29
872.525	9335.15
872.706	9392.5
872.887	9441.65
873.068	9195.89
873.249	9130.36
873.43	9089.4
873.61	9431.41
873.791	9314.67
873.972	8819.07
874.153	8792.44
874.334	9169.27
874.515	9064.82
874.696	9245.04
874.877	8927.61
875.058	8804.73
875.238	9079.16
875.419	9019.77
875.6	8864.12
875.781	8647.04
875.962	8771.96
876.142	9011.57
876.323	8970.62
876.504	8892.79
876.685	8700.28
876.865	8675.71
877.046	8784.25
877.227	8806.78
877.407	8786.3
877.588	8563.07
877.769	8653.18
877.949	8677.76
878.13	8716.67
878.311	8550.78
878.491	8302.98
878.672	8483.2
878.853	8563.07
879.033	8569.21
879.214	8219.01
879.394	8118.66
879.575	8542.59
879.755	8589.69
879.936	8470.91
880.116	8022.41
880.297	8151.43
880.477	8319.36
880.658	8436.1
880.838	8229.25
881.019	8165.76
881.199	8100.23
881.38	8393.09
881.56	8284.55
881.74	8378.75
881.921	8026.5
882.101	8065.41
882.281	8055.17
882.462	8192.39
882.642	8206.72
882.822	7952.77
883.003	7915.91
883.183	8143.24
883.363	8266.11
883.544	8206.72
883.724	7932.29
883.904	8149.38
884.084	8126.85
884.265	8051.08
884.445	8026.5
884.625	7934.34
884.805	7858.57
884.985	7899.53
885.166	8147.33
885.346	8135.04
885.526	7811.46
885.706	7766.41
885.886	7881.1
886.066	8030.6
886.246	8040.84
886.426	8067.46
886.606	8008.07
886.787	8094.08
886.967	8112.52
887.147	7979.4
887.327	7903.62
887.507	8051.08
887.687	7995.78
887.867	8075.65
888.047	8135.04
888.227	8167.81
888.406	8046.98
888.586	7950.73
888.766	8020.36
888.946	8178.05
889.126	8139.14
889.306	8036.74
889.486	7979.4
889.666	7995.78
889.846	8065.41
890.025	8038.79
890.205	8003.97
890.385	8133
890.565	8030.6
890.745	8024.45
890.924	8094.08
891.104	8159.62
891.284	7971.21
891.464	8063.36
891.643	8053.13
891.823	8307.07
892.003	8196.48
892.183	8257.92
892.362	8063.36
892.542	8108.42
892.722	8399.23
892.901	8327.55
893.081	8079.75
893.26	8229.25
893.44	8384.9
893.62	8503.68
893.799	8397.18
893.979	8200.58
894.158	8319.36
894.338	8116.61
894.517	8276.35
894.697	8501.63
894.877	8235.39
895.056	8460.67
895.236	8075.65
895.415	8305.03
895.594	8475.01
895.774	8464.77
895.953	8452.48
896.133	8386.94
896.312	8317.31
896.492	8647.04
896.671	8520.06
896.85	8628.6
897.03	8386.94
897.209	8243.59
897.388	8614.27
897.568	8692.09
897.747	8536.45
897.926	8606.08
898.106	8608.12
898.285	8563.07
898.464	8515.97
898.643	8599.93
898.823	8565.12
899.002	8563.07
899.181	8577.41
899.36	8520.06
899.54	8665.47
899.719	8647.04
899.898	8550.78
900.077	8520.06
900.256	8591.74
900.435	8728.95
900.614	8661.37
900.794	8567.17
900.973	8548.73
901.152	8604.03
901.331	8829.31
901.51	8765.82
901.689	8483.2
901.868	8581.5
902.047	8679.8
902.226	8774.01
902.405	8741.24
902.584	8614.27
902.763	8857.98
902.942	8808.83
903.121	8733.05
903.3	8702.33
903.479	8724.86
903.658	8880.5
903.837	8843.64
904.015	8716.67
904.194	8712.57
904.373	8849.78
904.552	8755.58
904.731	8739.19
904.91	9126.26
905.089	8757.63
905.267	8847.74
905.446	8835.45
905.625	9001.33
905.804	8722.81
905.982	8825.21
906.161	8698.24
906.34	8819.07
906.519	8872.31
906.697	9034.1
906.876	8978.81
907.055	8849.78
907.233	8677.76
907.412	8966.52
907.591	8882.55
907.769	8964.47
907.948	8909.18
908.127	8929.66
908.305	8939.9
908.484	8808.83
908.662	8982.9
908.841	9097.59
909.019	8946.04
909.198	9019.77
909.377	8812.92
909.555	8806.78
909.734	9015.67
909.912	8913.27
910.09	9025.91
910.269	8993.14
910.447	8708.48
910.626	8847.74
910.804	8878.46
910.983	9191.8
911.161	8778.11
911.339	8913.27
911.518	8733.05
911.696	8921.46
911.875	9001.33
912.053	8843.64
912.231	9175.41
912.41	8872.31
912.588	8616.32
912.766	8679.8
912.944	8860.02
913.123	8894.84
913.301	8911.22
913.479	8720.76
913.657	8798.59
913.836	8905.08
914.014	8831.35
914.192	8696.19
914.37	8735.1
914.548	8716.67
914.727	8677.76
914.905	8659.32
915.083	8796.54
915.261	8847.74
915.439	8890.74
915.617	8507.77
915.795	8647.04
915.973	8665.47
916.151	8724.86
916.329	8626.56
916.508	8804.73
916.686	8663.42
916.864	8640.89
917.042	8708.48
917.22	8624.51
917.398	8737.15
917.575	8534.4
917.753	8806.78
917.931	8499.58
918.109	8677.76
918.287	8677.76
918.465	8685.95
918.643	8630.65
918.821	8714.62
918.999	8622.46
919.177	8569.21
919.354	8503.68
919.532	8548.73
919.71	8649.08
919.888	8386.94
920.066	8436.1
920.243	8552.83
920.421	8362.37
920.599	8458.62
920.777	8528.25
920.954	8219.01
921.132	8278.4
921.31	8413.57
921.488	8296.83
921.665	8554.88
921.843	8282.5
922.021	8532.35
922.198	8202.63
922.376	8368.51
922.553	8206.72
922.731	8280.45
922.909	8259.97
923.086	8325.5
923.264	8200.58
923.441	8208.77
923.619	8087.94
923.796	8069.51
923.974	8106.37
924.152	8067.46
924.329	8024.45
924.507	7954.82
924.684	7922.06
924.861	8143.24
925.039	7889.29
925.216	7909.77
925.394	7969.16
925.571	7956.87
925.749	7700.87
925.926	7844.23
926.103	7987.59
926.281	7991.69
926.458	7823.75
926.635	7891.34
926.813	7860.62
926.99	7598.48
927.167	7799.18
927.345	7717.26
927.522	7578
927.699	7811.46
927.876	7596.43
928.054	7623.05
928.231	7627.15
928.408	7719.31
928.585	7506.32
928.763	7715.21
928.94	7510.41
929.117	7410.06
929.294	7342.48
929.471	7461.26
929.648	7336.34
929.825	7397.78
930.003	7424.4
930.18	7307.66
930.357	7338.38
930.534	7313.81
930.711	7297.42
930.888	7143.83
931.065	7137.68
931.242	7262.61
931.419	7035.28
931.596	7094.68
931.773	7152.02
931.95	7147.92
932.127	6982.04
932.304	6986.13
932.481	7025.04
932.658	6846.87
932.835	6863.26
933.011	6744.47
933.188	6869.4
933.365	6771.1
933.542	6814.1
933.719	6791.58
933.896	6896.02
934.073	6799.77
934.249	6797.72
934.426	6719.9
934.603	6551.96
934.78	6547.87
934.957	6543.77
935.133	6476.19
935.31	6398.37
935.487	6402.46
935.664	6402.46
935.84	6248.86
936.017	6398.37
936.194	6117.79
936.37	6085.03
936.547	6085.03
936.724	5874.09
936.9	5869.99
937.077	5755.3
937.253	5947.81
937.43	5826.98
937.607	5790.12
937.783	5562.8
937.96	5738.92
938.136	5429.68
938.313	5538.22
938.489	5327.28
938.666	5200.3
938.842	5202.35
939.019	5185.97
939.195	4997.56
939.372	5026.23
939.548	4870.58
939.725	4766.14
939.901	4766.14
940.077	4856.25
940.254	4678.07
940.43	4694.46
940.607	4657.59
940.783	4624.83
940.959	4444.6
941.136	4225.47
941.312	4133.31
941.488	4112.83
941.665	4116.93
941.841	4020.67
942.017	3899.84
942.193	3981.76
942.37	3932.61
942.546	3740.1
942.722	3918.28
942.898	3668.42
943.074	3570.12
943.251	3672.52
943.427	3662.28
943.603	3588.55
943.779	3469.77
943.955	3625.42
944.131	3649.99
944.308	3430.86
944.484	3461.58
944.66	3359.18
944.836	3453.39
945.012	3340.75
945.188	3344.84
945.364	3236.3
945.54	3394
945.716	3285.45
945.892	3299.79
946.068	3443.15
946.244	3391.95
946.42	3305.93
946.596	3205.58
946.772	3367.37
946.948	3307.98
947.124	3187.15
947.3	3197.39
947.475	3295.69
947.651	3342.8
947.827	3201.49
948.003	3312.08
948.179	3246.54
948.355	3234.25
948.531	3236.3
948.706	3185.1
948.882	3375.56
949.058	3406.28
949.234	3342.8
949.409	3307.98
949.585	3385.8
949.761	3318.22
949.937	3320.27
950.112	3207.63
950.288	3267.02
950.464	3367.37
950.639	3271.12
950.815	3459.53
950.991	3383.76
951.166	3273.17
951.342	3404.24
951.518	3334.61
951.693	3355.08
951.869	3426.76
952.044	3412.43
952.22	3449.29
952.395	3559.88
952.571	3412.43
952.747	3480.01
952.922	3523.02
953.098	3422.67
953.273	3441.1
953.448	3502.54
953.624	3480.01
953.799	3430.86
953.975	3543.5
954.15	3547.59
954.326	3480.01
954.501	3504.59
954.676	3600.84
954.852	3508.68
955.027	3512.78
955.203	3543.5
955.378	3613.13
955.553	3606.98
955.729	3578.31
955.904	3527.11
956.079	3637.7
956.254	3523.02
956.43	3617.22
956.605	3559.88
956.78	3666.38
956.955	3621.32
957.131	3547.59
957.306	3621.32
957.481	3678.66
957.656	3625.42
957.831	3684.81
958.007	3551.69
958.182	3606.98
958.357	3670.47
958.532	3641.8
958.707	3666.38
958.882	3578.31
959.057	3690.95
959.232	3764.68
959.407	3764.68
959.582	3658.18
959.757	3817.93
959.932	3568.07
960.107	3670.47
960.282	3705.29
960.457	3551.69
960.632	3680.71
960.807	3682.76
960.982	3629.51
961.157	3619.27
961.332	3674.57
961.507	3637.7
961.682	3572.17
961.857	3721.67
962.032	3623.37
962.206	3656.14
962.381	3805.64
962.556	3645.9
962.731	3744.2
962.906	3693
963.081	3723.72
963.255	3768.77
963.43	3520.97
963.605	3631.56
963.78	3563.98
963.954	3697.1
964.129	3547.59
964.304	3631.56
964.479	3572.17
964.653	3535.31
964.828	3684.81
965.003	3568.07
965.177	3441.1
965.352	3580.36
965.526	3658.18
965.701	3443.15
965.876	3584.46
966.05	3514.83
966.225	3541.45
966.399	3480.01
966.574	3520.97
966.748	3596.75
966.923	3604.94
967.098	3639.75
967.272	3449.29
967.446	3490.25
967.621	3412.43
967.795	3467.72
967.97	3508.68
968.144	3510.73
968.319	3465.68
968.493	3418.57
968.668	3570.12
968.842	3412.43
969.016	3359.18
969.191	3465.68
969.365	3346.89
969.539	3445.2
969.714	3310.03
969.888	3402.19
970.062	3379.66
970.237	3404.24
970.411	3471.82
970.585	3379.66
970.759	3305.93
970.934	3355.08
971.108	3307.98
971.282	3410.38
971.456	3398.09
971.63	3258.83
971.805	3224.01
971.979	3254.73
972.153	3412.43
972.327	3256.78
972.501	3176.91
972.675	3287.5
972.849	3244.49
973.024	3154.38
973.198	3170.77
973.372	3119.57
973.546	3160.53
973.72	3166.67
973.894	3135.95
974.068	3006.93
974.242	3154.38
974.416	3168.72
974.59	3125.71
974.764	3133.9
974.938	3160.53
975.112	3099.09
975.286	3008.98
975.46	3140.05
975.633	3082.7
975.807	3027.41
975.981	3064.27
976.155	3060.18
976.329	3070.42
976.503	3049.94
976.677	3068.37
976.85	2951.63
977.024	3113.42
977.198	3000.79
977.372	2884.05
977.546	3142.1
977.719	2886.1
977.893	3072.47
978.067	2906.58
978.241	2857.43
978.414	2941.4
978.588	2951.63
978.762	2843.09
978.935	2888.15
979.109	2910.68
979.283	2820.56
979.456	3011.03
979.63	2873.81
979.804	2945.49
979.977	2746.84
980.151	2712.02
980.324	2644.44
980.498	2787.8
980.671	2781.65
980.845	2857.43
981.018	2654.68
981.192	2873.81
981.365	2609.62
981.539	2759.13
981.712	2742.74
981.886	2714.07
982.059	2722.26
982.233	2666.97
982.406	2769.37
982.58	2660.82
982.753	2560.47
982.926	2583
983.1	2558.42
983.273	2589.14
983.446	2570.71
983.62	2482.65
983.793	2562.52
983.966	2531.8
984.14	2511.32
984.313	2539.99
984.486	2505.18
984.66	2482.65
984.833	2488.79
985.006	2552.28
985.179	2505.18
985.352	2554.33
985.526	2413.02
985.699	2496.99
985.872	2429.4
986.045	2439.64
986.218	2408.92
986.391	2429.4
986.565	2284
986.738	2419.16
986.911	2339.29
987.084	2284
987.257	2394.59
987.43	2351.58
987.603	2363.87
987.776	2423.26
987.949	2347.48
988.122	2228.7
988.295	2263.52
988.468	2351.58
988.641	2406.88
988.814	2320.86
988.987	2363.87
989.16	2245.09
989.333	2136.54
989.506	2195.93
989.679	2099.68
989.852	2298.33
990.025	2171.36
990.197	2171.36
990.37	2152.93
990.543	2130.4
990.716	2157.02
990.889	2122.21
991.062	2187.74
991.234	2032.1
991.407	2071.01
991.58	2122.21
991.753	2142.69
991.925	2093.54
992.098	2087.39
992.271	2062.82
992.444	2130.4
992.616	1946.08
992.789	1987.04
992.962	1939.94
993.134	1858.02
993.307	1782.24
993.479	1872.36
993.652	2017.76
993.825	1876.45
993.997	1839.59
994.17	1915.36
994.342	1737.19
994.515	1929.7
994.688	1903.07
994.86	1878.5
995.033	1933.79
995.205	1819.11
995.378	1790.44
995.55	1794.53
995.723	1888.74
995.895	1870.31
996.067	1806.82
996.24	1831.4
996.412	1868.26
996.585	1743.33
996.757	1714.66
996.929	1810.92
997.102	1765.86
997.274	1786.34
997.447	1698.28
997.619	1720.81
997.791	1761.77
997.964	1649.13
998.136	1712.61
998.308	1534.44
998.48	1597.93
998.653	1634.79
998.825	1565.16
998.997	1628.65
999.169	1616.36
999.342	1477.1
999.514	1561.06
999.686	1622.5
999.858	1661.41
1000.03	1573.35
1000.202	1520.1
1000.374	1505.77
1000.547	1597.93
1000.719	1561.06
1000.891	1401.32
1001.063	1382.89
1001.235	1374.7
1001.407	1427.95
1001.579	1466.86
1001.751	1522.15
1001.923	1462.76
1002.095	1456.62
1002.267	1495.53
1002.439	1415.66
1002.611	1438.19
1002.783	1405.42
1002.955	1364.46
1003.127	1374.7
1003.299	1270.25
1003.471	1274.35
1003.643	1272.3
1003.815	1343.98
1003.986	1384.94
1004.158	1425.9
1004.33	1155.57
1004.502	1253.87
1004.674	1300.97
1004.846	1274.35
1005.017	1270.25
1005.189	1266.16
1005.361	1221.1
1005.533	1225.2
1005.704	1165.81
1005.876	1243.63
1006.048	1237.49
1006.22	1192.43
1006.391	1249.77
1006.563	1182.19
1006.735	1188.33
1006.906	1153.52
1007.078	1190.38
1007.25	1188.33
1007.421	1130.99
1007.593	1163.76
1007.764	1106.42
1007.936	1196.53
1008.108	1118.7
1008.279	987.63
1008.451	1102.32
1008.622	1098.22
1008.794	1087.98
1008.965	1090.03
1009.137	1114.61
1009.308	926.19
1009.48	975.35
1009.651	1085.94
1009.823	936.43
1009.994	991.73
1010.165	1059.31
1010.337	1032.69
1010.508	1049.07
1010.68	1053.17
1010.851	989.68
1011.022	1081.84
1011.194	893.43
1011.365	975.35
1011.536	995.82
1011.708	899.57
1011.879	938.48
1012.05	909.81
1012.222	991.73
1012.393	903.67
1012.564	877.04
1012.735	895.47
1012.906	811.51
1013.078	885.23
1013.249	973.3
1013.42	838.13
1013.591	846.32
1013.762	864.75
1013.934	922.1
1014.105	877.04
1014.276	799.22
1014.447	754.16
1014.618	809.46
1014.789	752.12
1014.96	770.55
1015.131	760.31
1015.302	782.84
1015.473	760.31
1015.644	729.59
1015.815	762.36
1015.986	762.36
1016.157	702.97
1016.328	870.9
1016.499	666.1
1016.67	764.4
1016.841	741.88
1017.012	717.3
1017.183	694.77
1017.354	745.97
1017.525	717.3
1017.696	797.17
1017.867	690.68
1018.037	827.89
1018.208	694.77
1018.379	612.85
1018.55	682.49
1018.721	639.48
1018.891	664.05
1019.062	682.49
1019.233	655.86
1019.404	655.86
1019.574	621.05
1019.745	575.99
1019.916	705.01
1020.087	668.15
1020.257	737.78
1020.428	547.32
1020.599	590.33
1020.769	623.09
1020.94	571.9
1021.11	565.75
1021.281	606.71
1021.452	512.5
1021.622	532.98
1021.793	489.98
1021.963	612.85
1022.134	610.81
1022.305	592.37
1022.475	537.08
1022.646	600.57
1022.816	537.08
1022.987	573.94
1023.157	590.33
1023.327	563.7
1023.498	492.02
1023.668	504.31
1023.839	518.65
1024.009	508.41
1024.18	471.54
1024.35	442.87
1024.52	432.63
1024.691	416.25
1024.861	498.17
1025.031	438.78
1025.202	475.64
1025.372	399.87
1025.542	518.65
1025.713	451.07
1025.883	371.19
1026.053	471.54
1026.223	418.3
1026.394	457.21
1026.564	483.83
1026.734	438.78
1026.904	477.69
1027.074	356.86
1027.245	438.78
1027.415	348.67
1027.585	320
1027.755	389.63
1027.925	440.83
1028.095	403.96
1028.265	403.96
1028.435	387.58
1028.606	328.19
1028.776	408.06
1028.946	360.95
1029.116	389.63
1029.286	291.32
1029.456	320
1029.626	344.57
1029.796	295.42
1029.966	254.46
1030.136	334.33
1030.306	242.17
1030.475	358.91
1030.645	293.37
1030.815	340.47
1030.985	416.25
1031.155	326.14
1031.325	320
1031.495	299.52
1031.665	281.08
1031.835	266.75
1032.004	238.08
1032.174	352.76
1032.344	326.14
1032.514	320
1032.684	348.67
1032.853	252.41
1033.023	229.88
1033.193	272.89
1033.362	260.6
1033.532	254.46
1033.702	233.98
1033.872	272.89
1034.041	276.99
1034.211	295.42
1034.381	260.6
1034.55	244.22
1034.72	293.37
1034.889	291.32
1035.059	205.31
1035.229	254.46
1035.398	178.69
1035.568	145.92
1035.737	211.45
1035.907	264.7
1036.076	260.6
1036.246	258.56
1036.415	209.4
1036.585	145.92
1036.754	238.08
1036.924	199.16
1037.093	201.21
1037.263	215.55
1037.432	242.17
1037.601	162.3
1037.771	238.08
1037.94	162.3
1038.11	229.88
1038.279	168.45
1038.448	291.32
1038.618	172.54
1038.787	111.1
1038.956	262.65
1039.126	154.11
1039.295	190.97
1039.464	168.45
1039.633	154.11
1039.803	274.94
1039.972	90.62
1040.141	190.97
1040.31	174.59
1040.479	168.45
1040.649	186.88
1040.818	229.88
1040.987	162.3
1041.156	154.11
1041.325	141.82
1041.494	260.6
1041.663	170.49
1041.833	135.68
1042.002	182.78
1042.171	107.01
1042.34	180.73
1042.509	211.45
1042.678	57.86
